# material=As density=5.727
# Photon Energy [eV]  Attenuation Length [um]
1.000000e+01 6.720459e-03
1.016170e+01 6.753997e-03
1.032610e+01 6.787761e-03
1.049310e+01 6.821653e-03
1.066280e+01 6.855721e-03
1.083530e+01 6.889983e-03
1.101060e+01 6.924434e-03
1.118860e+01 6.958966e-03
1.136960e+01 6.993747e-03
1.155350e+01 7.028683e-03
1.174040e+01 7.063802e-03
1.193030e+01 7.099087e-03
1.212320e+01 7.134518e-03
1.231930e+01 7.199971e-03
1.251860e+01 7.321833e-03
1.272100e+01 7.445689e-03
1.292680e+01 7.571719e-03
1.313590e+01 7.699855e-03
1.334830e+01 7.830130e-03
1.356420e+01 7.962621e-03
1.378360e+01 8.097379e-03
1.400660e+01 8.235356e-03
1.423310e+01 8.379162e-03
1.446330e+01 8.525500e-03
1.469730e+01 8.674436e-03
1.493500e+01 8.825938e-03
1.517650e+01 8.980057e-03
1.542200e+01 9.136903e-03
1.567140e+01 9.296461e-03
1.592490e+01 9.458843e-03
1.618250e+01 9.624076e-03
1.644420e+01 9.916970e-03
1.671020e+01 1.025566e-02
1.698050e+01 1.060591e-02
1.725510e+01 1.096805e-02
1.753420e+01 1.134263e-02
1.781780e+01 1.172997e-02
1.810600e+01 1.213057e-02
1.839890e+01 1.260696e-02
1.869640e+01 1.328015e-02
1.899880e+01 1.398938e-02
1.930610e+01 1.473648e-02
1.961840e+01 1.552352e-02
1.993570e+01 1.635254e-02
2.025820e+01 1.722587e-02
2.058580e+01 1.816436e-02
2.091880e+01 1.916173e-02
2.125710e+01 2.021377e-02
2.160090e+01 2.132358e-02
2.195030e+01 2.249440e-02
2.230530e+01 2.407703e-02
2.266610e+01 2.596387e-02
2.303270e+01 2.799852e-02
2.340530e+01 3.019268e-02
2.378380e+01 3.255868e-02
2.416850e+01 3.511015e-02
2.455940e+01 3.792270e-02
2.495660e+01 4.101873e-02
2.536030e+01 4.436729e-02
2.577050e+01 4.798937e-02
2.618730e+01 5.190706e-02
2.661090e+01 5.614451e-02
2.704130e+01 6.104104e-02
2.747860e+01 6.663473e-02
2.792310e+01 7.274086e-02
2.837470e+01 7.940670e-02
2.883370e+01 8.668311e-02
2.930000e+01 9.406975e-02
2.977390e+01 1.010328e-01
3.025550e+01 1.085112e-01
3.074490e+01 1.165432e-01
3.124210e+01 1.251693e-01
3.174750e+01 1.344345e-01
3.226090e+01 1.465116e-01
3.278270e+01 1.603367e-01
3.331300e+01 1.754314e-01
3.385180e+01 1.853128e-01
3.439930e+01 1.957511e-01
3.495570e+01 2.059830e-01
3.552110e+01 2.131936e-01
3.609560e+01 2.206563e-01
3.667940e+01 2.240445e-01
3.727270e+01 2.241154e-01
3.787550e+01 2.184362e-01
3.848820e+01 2.099987e-01
3.911070e+01 1.888747e-01
3.974320e+01 1.612575e-01
4.038610e+01 1.376786e-01
4.103930e+01 1.183702e-01
4.170310e+01 1.027957e-01
4.237760e+01 9.436644e-02
4.306300e+01 8.929402e-02
4.375950e+01 8.994932e-02
4.446730e+01 9.112047e-02
4.518650e+01 9.230644e-02
4.591740e+01 9.372007e-02
4.666000e+01 9.558152e-02
4.741470e+01 9.748013e-02
4.818160e+01 9.941643e-02
4.896090e+01 9.994843e-02
4.975280e+01 9.807705e-02
5.055760e+01 9.624065e-02
5.137530e+01 9.443813e-02
5.220620e+01 9.217023e-02
5.305060e+01 8.916165e-02
5.390870e+01 8.625197e-02
5.478060e+01 8.343708e-02
5.566670e+01 8.071407e-02
5.656700e+01 7.796782e-02
5.748200e+01 7.516440e-02
5.841170e+01 7.246182e-02
5.935640e+01 6.985641e-02
6.031650e+01 6.734476e-02
6.129210e+01 6.492324e-02
6.228340e+01 6.288737e-02
6.329080e+01 6.095876e-02
6.431450e+01 5.908913e-02
6.535470e+01 5.727693e-02
6.641180e+01 5.552040e-02
6.748590e+01 5.381744e-02
6.857750e+01 5.262152e-02
6.968670e+01 5.158865e-02
7.081380e+01 5.057618e-02
7.195910e+01 4.958345e-02
7.312300e+01 4.861020e-02
7.430570e+01 4.766840e-02
7.550760e+01 4.695120e-02
7.672890e+01 4.624475e-02
7.796990e+01 4.554894e-02
7.923100e+01 4.486354e-02
8.051250e+01 4.418852e-02
8.181470e+01 4.352361e-02
8.313800e+01 4.286874e-02
8.448270e+01 4.222373e-02
8.584910e+01 4.158838e-02
8.723770e+01 4.107525e-02
8.864870e+01 4.066196e-02
9.008250e+01 4.025286e-02
9.153950e+01 3.984783e-02
9.302010e+01 3.944693e-02
9.452460e+01 3.905007e-02
9.605350e+01 3.865723e-02
9.760710e+01 3.826825e-02
9.918580e+01 3.801069e-02
1.007900e+02 3.784993e-02
1.024200e+02 3.768981e-02
1.040770e+02 3.753054e-02
1.057600e+02 3.737173e-02
1.074710e+02 3.721382e-02
1.092090e+02 3.705641e-02
1.109750e+02 3.691801e-02
1.127700e+02 3.679537e-02
1.145940e+02 3.667306e-02
1.164480e+02 3.655138e-02
1.183310e+02 3.642968e-02
1.202450e+02 3.630881e-02
1.221900e+02 3.618821e-02
1.241660e+02 3.612743e-02
1.261750e+02 3.611839e-02
1.282150e+02 3.610919e-02
1.302890e+02 3.610007e-02
1.323970e+02 3.609132e-02
1.345380e+02 3.608205e-02
1.367140e+02 3.607282e-02
1.389250e+02 3.606363e-02
1.411720e+02 3.605475e-02
1.434560e+02 3.604554e-02
1.457760e+02 3.603636e-02
1.481340e+02 3.616206e-02
1.505300e+02 3.639319e-02
1.529640e+02 3.662533e-02
1.554390e+02 3.685939e-02
1.579530e+02 3.709479e-02
1.605070e+02 3.733136e-02
1.631030e+02 3.757004e-02
1.657420e+02 3.782035e-02
1.684220e+02 3.812353e-02
1.711460e+02 3.842926e-02
1.739150e+02 3.873766e-02
1.767270e+02 3.904814e-02
1.795860e+02 3.936149e-02
1.824910e+02 3.967735e-02
1.854420e+02 3.999534e-02
1.884420e+02 4.031624e-02
1.914890e+02 4.085455e-02
1.945870e+02 4.129700e-02
1.977340e+02 4.170269e-02
2.009320e+02 4.207829e-02
2.041820e+02 4.245659e-02
2.074850e+02 4.283882e-02
2.108400e+02 4.322465e-02
2.142510e+02 4.402934e-02
2.177160e+02 4.493985e-02
2.212370e+02 4.594331e-02
2.248160e+02 4.696891e-02
2.284520e+02 4.801736e-02
2.321470e+02 4.908971e-02
2.359020e+02 5.018584e-02
2.397170e+02 5.130570e-02
2.435950e+02 5.245056e-02
2.475350e+02 5.362165e-02
2.515380e+02 5.481881e-02
2.556070e+02 5.604346e-02
2.597410e+02 5.729413e-02
2.639420e+02 5.857280e-02
2.682110e+02 5.988049e-02
2.725490e+02 6.121783e-02
2.769570e+02 6.267569e-02
2.814370e+02 6.428522e-02
2.859890e+02 6.601420e-02
2.906150e+02 6.780088e-02
2.953150e+02 6.963369e-02
3.000920e+02 7.151841e-02
3.049450e+02 7.345316e-02
3.098780e+02 7.543983e-02
3.148900e+02 7.748153e-02
3.199830e+02 7.957871e-02
3.251580e+02 8.173269e-02
3.304180e+02 8.394192e-02
3.357620e+02 8.621117e-02
3.411920e+02 8.854364e-02
3.467110e+02 9.093997e-02
3.523190e+02 9.340067e-02
3.580170e+02 9.592635e-02
3.638080e+02 9.852326e-02
3.696920e+02 1.011903e-01
3.756720e+02 1.039279e-01
3.817480e+02 1.067401e-01
3.879220e+02 1.096658e-01
3.941970e+02 1.127562e-01
4.005730e+02 1.162095e-01
4.070520e+02 1.198813e-01
4.136350e+02 1.236735e-01
4.203260e+02 1.275833e-01
4.271240e+02 1.316154e-01
4.340320e+02 1.357699e-01
4.410520e+02 1.400629e-01
4.481860e+02 1.445070e-01
4.554350e+02 1.491563e-01
4.628020e+02 1.540119e-01
4.702870e+02 1.590579e-01
4.778940e+02 1.642761e-01
4.856230e+02 1.696605e-01
4.934780e+02 1.752196e-01
5.014590e+02 1.809572e-01
5.095700e+02 1.868847e-01
5.178120e+02 1.930209e-01
5.261870e+02 1.994122e-01
5.346980e+02 2.061190e-01
5.433460e+02 2.131047e-01
5.521340e+02 2.203259e-01
5.610650e+02 2.279947e-01
5.701390e+02 2.360186e-01
5.793610e+02 2.442460e-01
5.887320e+02 2.527297e-01
5.982540e+02 2.614881e-01
6.079300e+02 2.705512e-01
6.177630e+02 2.799282e-01
6.277550e+02 2.896504e-01
6.379080e+02 2.999678e-01
6.482260e+02 3.110542e-01
6.587110e+02 3.228268e-01
6.693650e+02 3.350460e-01
6.801910e+02 3.469247e-01
6.911930e+02 3.585802e-01
7.023720e+02 3.704584e-01
7.137330e+02 3.833452e-01
7.252770e+02 3.971219e-01
7.370080e+02 4.113863e-01
7.489280e+02 4.261659e-01
7.610420e+02 4.414850e-01
7.733510e+02 4.574387e-01
7.858590e+02 4.742484e-01
7.985700e+02 4.919198e-01
8.114860e+02 5.102482e-01
8.246110e+02 5.292634e-01
8.379490e+02 5.489893e-01
8.515020e+02 5.695092e-01
8.652740e+02 5.908534e-01
8.792690e+02 6.130513e-01
8.934910e+02 6.360932e-01
9.079430e+02 6.599932e-01
9.226280e+02 6.847804e-01
9.375510e+02 7.108084e-01
9.527150e+02 7.378904e-01
9.681240e+02 7.660644e-01
9.837830e+02 7.953279e-01
9.996950e+02 8.256889e-01
1.015860e+03 8.571789e-01
1.032290e+03 8.897312e-01
1.048990e+03 9.237473e-01
1.065960e+03 9.593157e-01
1.083200e+03 9.962206e-01
1.100720e+03 1.034560e+00
1.118520e+03 1.074387e+00
1.136610e+03 1.115715e+00
1.155000e+03 1.158644e+00
1.173680e+03 1.203217e+00
1.192660e+03 1.249565e+00
1.211950e+03 1.297673e+00
1.231550e+03 1.347583e+00
1.251470e+03 1.399315e+00
1.271720e+03 1.452941e+00
1.292290e+03 1.508473e+00
1.313190e+03 1.566128e+00
1.323500e+03 1.595024e+00
1.323700e+03 2.504516e-01
1.334430e+03 2.549426e-01
1.356010e+03 2.641082e-01
1.377940e+03 2.736058e-01
1.400230e+03 2.834466e-01
1.422880e+03 2.936414e-01
1.445890e+03 3.041975e-01
1.469280e+03 3.151260e-01
1.493040e+03 3.264330e-01
1.517190e+03 3.381458e-01
1.526900e+03 3.429207e-01
1.527100e+03 3.013429e-01
1.541730e+03 3.081971e-01
1.566670e+03 3.200858e-01
1.592010e+03 3.324355e-01
1.617760e+03 3.452612e-01
1.643920e+03 3.585786e-01
1.670510e+03 3.724133e-01
1.697530e+03 3.867827e-01
1.724990e+03 4.017040e-01
1.752890e+03 4.176267e-01
1.781240e+03 4.343335e-01
1.810050e+03 4.518342e-01
1.839320e+03 4.700405e-01
1.869070e+03 4.889780e-01
1.899300e+03 5.086710e-01
1.930020e+03 5.291751e-01
1.961240e+03 5.504989e-01
1.992960e+03 5.726698e-01
2.025200e+03 5.954057e-01
2.057950e+03 6.198108e-01
2.091240e+03 6.453483e-01
2.125060e+03 6.720153e-01
2.159430e+03 6.998457e-01
2.194360e+03 7.289525e-01
2.229850e+03 7.593223e-01
2.265920e+03 7.910504e-01
2.302570e+03 8.241967e-01
2.339810e+03 8.588372e-01
2.377660e+03 8.949807e-01
2.416110e+03 9.327511e-01
2.455190e+03 9.722120e-01
2.494900e+03 1.013430e+00
2.535260e+03 1.056517e+00
2.576260e+03 1.101507e+00
2.617930e+03 1.148517e+00
2.660270e+03 1.197625e+00
2.703300e+03 1.248856e+00
2.747030e+03 1.302452e+00
2.791460e+03 1.358413e+00
2.836610e+03 1.416964e+00
2.882490e+03 1.477974e+00
2.929110e+03 1.541838e+00
2.976480e+03 1.608507e+00
3.024630e+03 1.678270e+00
3.073550e+03 1.750969e+00
3.123260e+03 1.827082e+00
3.173780e+03 1.906553e+00
3.225110e+03 1.989584e+00
3.277270e+03 2.076337e+00
3.330280e+03 2.167010e+00
3.384150e+03 2.261749e+00
3.438880e+03 2.360714e+00
3.494500e+03 2.464135e+00
3.551020e+03 2.572204e+00
3.608460e+03 2.685158e+00
3.666820e+03 2.803149e+00
3.726130e+03 2.926429e+00
3.786400e+03 3.055319e+00
3.847640e+03 3.189957e+00
3.909870e+03 3.330665e+00
3.973110e+03 3.477734e+00
4.037380e+03 3.631399e+00
4.102680e+03 3.791986e+00
4.169030e+03 3.959770e+00
4.236460e+03 4.135142e+00
4.304980e+03 4.318465e+00
4.374620e+03 4.510040e+00
4.445370e+03 4.710220e+00
4.517270e+03 4.919431e+00
4.590330e+03 5.138070e+00
4.664580e+03 5.366598e+00
4.740030e+03 5.605587e+00
4.816690e+03 5.855209e+00
4.894600e+03 6.116101e+00
4.973770e+03 6.388850e+00
5.054210e+03 6.673810e+00
5.135960e+03 6.971745e+00
5.219030e+03 7.283167e+00
5.303440e+03 7.608896e+00
5.389220e+03 7.949138e+00
5.476390e+03 8.304708e+00
5.564970e+03 8.676553e+00
5.654980e+03 9.065445e+00
5.746440e+03 9.471754e+00
5.839390e+03 9.896494e+00
5.933830e+03 1.034055e+01
6.029810e+03 1.080507e+01
6.127330e+03 1.128983e+01
6.226440e+03 1.179736e+01
6.327150e+03 1.232786e+01
6.429480e+03 1.288240e+01
6.533480e+03 1.346284e+01
6.639150e+03 1.406936e+01
6.746540e+03 1.470345e+01
6.855650e+03 1.536665e+01
6.966540e+03 1.605948e+01
7.079220e+03 1.678523e+01
7.193720e+03 1.754348e+01
7.310070e+03 1.833686e+01
7.428310e+03 1.916637e+01
7.548450e+03 2.003403e+01
7.670540e+03 2.094178e+01
7.794610e+03 2.189108e+01
7.920680e+03 2.288416e+01
8.048790e+03 2.392327e+01
8.178980e+03 2.501036e+01
8.311260e+03 2.614724e+01
8.445690e+03 2.733697e+01
8.582290e+03 2.858260e+01
8.721110e+03 2.988553e+01
8.862160e+03 3.124905e+01
9.005500e+03 3.267591e+01
9.151160e+03 3.416965e+01
9.299170e+03 3.573319e+01
9.449580e+03 3.737045e+01
9.602420e+03 3.908385e+01
9.757730e+03 4.087816e+01
9.915550e+03 4.275621e+01
1.007590e+04 4.472359e+01
1.023890e+04 4.678436e+01
1.040450e+04 4.894266e+01
1.057280e+04 5.120376e+01
1.074380e+04 5.357249e+01
1.091760e+04 5.605457e+01
1.109420e+04 5.865556e+01
1.127360e+04 6.138125e+01
1.145590e+04 6.423822e+01
1.164120e+04 6.723359e+01
1.182950e+04 7.037436e+01
1.186660e+04 7.100390e+01
1.186680e+04 9.476667e+00
1.202080e+04 9.788379e+00
1.221530e+04 1.019059e+01
1.241280e+04 1.061114e+01
1.261360e+04 1.105115e+01
1.281760e+04 1.151133e+01
1.302500e+04 1.199284e+01
1.323560e+04 1.249635e+01
1.344970e+04 1.302312e+01
1.366720e+04 1.357419e+01
1.388830e+04 1.415074e+01
1.411290e+04 1.475385e+01
1.434120e+04 1.538487e+01
1.457310e+04 1.604502e+01
1.480890e+04 1.673589e+01
1.504840e+04 1.745868e+01
1.529180e+04 1.821492e+01
1.553910e+04 1.900629e+01
1.579040e+04 1.983439e+01
1.604580e+04 2.070103e+01
1.630540e+04 2.160804e+01
1.656910e+04 2.255711e+01
1.683710e+04 2.355054e+01
1.710940e+04 2.459025e+01
1.738610e+04 2.567837e+01
1.766740e+04 2.681762e+01
1.795310e+04 2.800989e+01
1.824350e+04 2.925805e+01
1.853860e+04 3.056462e+01
1.883840e+04 3.193221e+01
1.914310e+04 3.336408e+01
1.945270e+04 3.486313e+01
1.976740e+04 3.643275e+01
2.008710e+04 3.807615e+01
2.041200e+04 3.979681e+01
2.074210e+04 4.159817e+01
2.107760e+04 4.348481e+01
2.141850e+04 4.545999e+01
2.176500e+04 4.752907e+01
2.211700e+04 4.969508e+01
2.247470e+04 5.196389e+01
2.283820e+04 5.433964e+01
2.320760e+04 5.682823e+01
2.358300e+04 5.943464e+01
2.396440e+04 6.216418e+01
2.435200e+04 6.502353e+01
2.474590e+04 6.801835e+01
2.514620e+04 7.115573e+01
2.555290e+04 7.444158e+01
2.596620e+04 7.788401e+01
2.638610e+04 8.148954e+01
2.681290e+04 8.526783e+01
2.724660e+04 8.922571e+01
2.768730e+04 9.337226e+01
2.813510e+04 9.771653e+01
2.859020e+04 1.022684e+02
2.905260e+04 1.070373e+02
2.952250e+04 1.120342e+02
3.000000e+04 1.172701e+02
