# material=Au density=19.3
# Photon Energy [eV]  Attenuation Length [um]
1.000000e+01 1.396670e-02
1.016170e+01 1.358393e-02
1.032610e+01 1.321180e-02
1.049310e+01 1.284979e-02
1.066280e+01 1.249761e-02
1.083530e+01 1.216424e-02
1.101060e+01 1.184072e-02
1.118860e+01 1.152563e-02
1.136960e+01 1.122276e-02
1.155350e+01 1.093523e-02
1.174040e+01 1.065513e-02
1.193030e+01 1.038842e-02
1.212320e+01 1.018007e-02
1.231930e+01 9.975946e-03
1.251860e+01 9.789609e-03
1.272100e+01 9.648597e-03
1.292680e+01 9.509750e-03
1.313590e+01 9.372868e-03
1.334830e+01 9.237877e-03
1.356420e+01 9.104900e-03
1.378360e+01 8.958454e-03
1.400660e+01 8.813215e-03
1.423310e+01 8.670255e-03
1.446330e+01 8.529633e-03
1.469730e+01 8.391348e-03
1.493500e+01 8.255987e-03
1.517650e+01 8.158019e-03
1.542200e+01 8.061283e-03
1.567140e+01 7.965627e-03
1.592490e+01 7.870763e-03
1.618250e+01 7.775865e-03
1.644420e+01 7.682091e-03
1.671020e+01 7.589466e-03
1.698050e+01 7.497956e-03
1.725510e+01 7.359438e-03
1.753420e+01 7.174697e-03
1.781780e+01 6.994592e-03
1.810600e+01 6.819007e-03
1.839890e+01 6.658623e-03
1.869640e+01 6.506967e-03
1.899880e+01 6.358807e-03
1.930610e+01 6.214012e-03
1.961840e+01 6.072530e-03
1.993570e+01 5.952092e-03
2.025820e+01 5.835346e-03
2.058580e+01 5.720855e-03
2.091880e+01 5.608645e-03
2.125710e+01 5.498608e-03
2.160090e+01 5.425168e-03
2.195030e+01 5.402405e-03
2.230530e+01 5.379731e-03
2.266610e+01 5.423709e-03
2.303270e+01 5.581592e-03
2.340530e+01 5.744077e-03
2.378380e+01 5.966599e-03
2.416850e+01 6.203655e-03
2.455940e+01 6.474664e-03
2.495660e+01 6.791435e-03
2.536030e+01 6.988111e-03
2.577050e+01 7.075458e-03
2.618730e+01 7.163892e-03
2.661090e+01 7.253453e-03
2.704130e+01 7.159467e-03
2.747860e+01 7.046248e-03
2.792310e+01 6.934854e-03
2.837470e+01 6.703327e-03
2.883370e+01 6.468547e-03
2.930000e+01 6.242019e-03
2.977390e+01 6.044575e-03
3.025550e+01 5.928744e-03
3.074490e+01 5.909149e-03
3.124210e+01 5.889519e-03
3.174750e+01 5.976107e-03
3.226090e+01 6.195123e-03
3.278270e+01 6.350892e-03
3.331300e+01 6.474001e-03
3.385180e+01 6.599546e-03
3.439930e+01 6.727483e-03
3.495570e+01 6.858254e-03
3.552110e+01 6.991923e-03
3.609560e+01 7.128206e-03
3.667940e+01 7.267106e-03
3.727270e+01 7.378024e-03
3.787550e+01 7.470700e-03
3.848820e+01 7.564604e-03
3.911070e+01 7.659640e-03
3.974320e+01 7.755892e-03
4.038610e+01 7.843046e-03
4.103930e+01 7.922320e-03
4.170310e+01 8.002308e-03
4.237760e+01 8.083131e-03
4.306300e+01 8.164804e-03
4.375950e+01 8.247216e-03
4.446730e+01 8.349985e-03
4.518650e+01 8.506771e-03
4.591740e+01 8.666570e-03
4.666000e+01 8.829337e-03
4.741470e+01 9.000377e-03
4.818160e+01 9.182678e-03
4.896090e+01 9.368749e-03
4.975280e+01 9.558516e-03
5.055760e+01 9.678785e-03
5.137530e+01 9.731090e-03
5.220620e+01 9.783713e-03
5.305060e+01 9.836533e-03
5.390870e+01 9.889711e-03
5.478060e+01 9.900482e-03
5.566670e+01 9.857802e-03
5.656700e+01 9.815270e-03
5.748200e+01 9.772944e-03
5.841170e+01 9.730796e-03
5.935640e+01 9.729843e-03
6.031650e+01 9.799070e-03
6.129210e+01 9.868718e-03
6.228340e+01 9.938920e-03
6.329080e+01 1.013067e-02
6.431450e+01 1.045503e-02
6.535470e+01 1.079695e-02
6.641180e+01 1.121405e-02
6.748590e+01 1.164721e-02
6.857750e+01 1.209713e-02
6.968670e+01 1.256440e-02
7.081380e+01 1.290985e-02
7.195910e+01 1.322081e-02
7.312300e+01 1.353917e-02
7.430570e+01 1.384036e-02
7.550760e+01 1.410126e-02
7.672890e+01 1.436707e-02
7.796990e+01 1.470171e-02
7.923100e+01 1.514784e-02
8.051250e+01 1.560766e-02
8.181470e+01 1.608132e-02
8.313800e+01 1.624780e-02
8.448270e+01 1.581893e-02
8.584910e+01 1.654078e-02
8.723770e+01 1.731736e-02
8.864870e+01 1.832162e-02
9.008250e+01 1.938428e-02
9.153950e+01 2.050845e-02
9.302010e+01 2.187224e-02
9.452460e+01 2.333305e-02
9.605350e+01 2.470345e-02
9.760710e+01 2.599132e-02
9.918580e+01 2.734631e-02
1.007900e+02 2.877192e-02
1.024200e+02 3.041412e-02
1.040770e+02 3.221352e-02
1.057600e+02 3.411912e-02
1.074710e+02 3.613779e-02
1.092090e+02 3.797288e-02
1.109750e+02 3.976154e-02
1.127700e+02 4.163467e-02
1.145940e+02 4.359608e-02
1.164480e+02 4.564996e-02
1.183310e+02 4.769489e-02
1.202450e+02 4.978217e-02
1.221900e+02 5.196076e-02
1.241660e+02 5.423442e-02
1.261750e+02 5.660818e-02
1.282150e+02 5.933078e-02
1.302890e+02 6.289799e-02
1.323970e+02 6.668001e-02
1.345380e+02 7.008973e-02
1.367140e+02 7.215943e-02
1.389250e+02 7.429020e-02
1.411720e+02 7.648407e-02
1.434560e+02 7.874298e-02
1.457760e+02 8.012523e-02
1.481340e+02 8.064526e-02
1.505300e+02 8.116873e-02
1.529640e+02 8.169489e-02
1.554390e+02 8.222562e-02
1.579530e+02 8.248217e-02
1.605070e+02 8.114240e-02
1.631030e+02 7.982477e-02
1.657420e+02 7.852913e-02
1.684220e+02 7.725372e-02
1.711460e+02 7.538298e-02
1.739150e+02 7.255815e-02
1.767270e+02 6.983854e-02
1.795860e+02 6.722136e-02
1.824910e+02 6.470224e-02
1.854420e+02 6.225461e-02
1.884420e+02 5.988511e-02
1.914890e+02 5.760554e-02
1.945870e+02 5.541316e-02
1.977340e+02 5.330392e-02
2.009320e+02 5.131561e-02
2.041820e+02 4.953386e-02
2.074850e+02 4.781386e-02
2.108400e+02 4.615351e-02
2.142510e+02 4.458045e-02
2.177160e+02 4.358252e-02
2.212370e+02 4.260703e-02
2.248160e+02 4.165371e-02
2.284520e+02 4.072121e-02
2.321470e+02 3.980980e-02
2.359020e+02 3.908544e-02
2.397170e+02 3.845061e-02
2.435950e+02 3.782652e-02
2.475350e+02 3.721223e-02
2.515380e+02 3.660794e-02
2.556070e+02 3.617908e-02
2.597410e+02 3.577192e-02
2.639420e+02 3.536934e-02
2.682110e+02 3.497120e-02
2.725490e+02 3.457759e-02
2.769570e+02 3.433504e-02
2.814370e+02 3.421995e-02
2.859890e+02 3.410521e-02
2.906150e+02 3.399100e-02
2.953150e+02 3.387691e-02
3.000920e+02 3.376342e-02
3.049450e+02 3.365019e-02
3.098780e+02 3.353747e-02
3.148900e+02 3.351266e-02
3.199830e+02 3.351261e-02
3.251580e+02 3.351262e-02
3.304180e+02 3.351270e-02
3.357620e+02 3.351261e-02
3.411920e+02 3.351256e-02
3.467110e+02 3.351269e-02
3.523190e+02 3.351734e-02
3.580170e+02 3.372708e-02
3.638080e+02 3.393804e-02
3.696920e+02 3.415040e-02
3.756720e+02 3.436406e-02
3.817480e+02 3.457893e-02
3.879220e+02 3.479522e-02
3.941970e+02 3.501297e-02
4.005730e+02 3.523206e-02
4.070520e+02 3.556357e-02
4.136350e+02 3.595363e-02
4.203260e+02 3.634828e-02
4.271240e+02 3.674708e-02
4.340320e+02 3.715030e-02
4.410520e+02 3.755804e-02
4.481860e+02 3.797009e-02
4.554350e+02 3.842944e-02
4.628020e+02 3.893619e-02
4.702870e+02 3.944946e-02
4.778940e+02 3.996950e-02
4.856230e+02 4.049652e-02
4.934780e+02 4.103037e-02
5.014590e+02 4.157124e-02
5.095700e+02 4.211940e-02
5.178120e+02 4.268921e-02
5.261870e+02 4.327154e-02
5.346980e+02 4.386199e-02
5.433460e+02 4.446041e-02
5.521340e+02 4.506699e-02
5.610650e+02 4.568189e-02
5.701390e+02 4.631155e-02
5.793610e+02 4.697803e-02
5.887320e+02 4.765392e-02
5.982540e+02 4.833964e-02
6.079300e+02 4.903522e-02
6.177630e+02 4.974083e-02
6.277550e+02 5.045658e-02
6.379080e+02 5.118257e-02
6.482260e+02 5.191905e-02
6.587110e+02 5.282618e-02
6.693650e+02 5.389141e-02
6.801910e+02 5.497784e-02
6.911930e+02 5.608654e-02
7.023720e+02 5.721726e-02
7.137330e+02 5.837098e-02
7.252770e+02 5.954781e-02
7.370080e+02 6.072311e-02
7.489280e+02 6.192062e-02
7.610420e+02 6.314176e-02
7.733510e+02 6.438702e-02
7.858590e+02 6.565672e-02
7.985700e+02 6.695211e-02
8.114860e+02 6.844885e-02
8.246110e+02 6.997919e-02
8.379490e+02 7.154369e-02
8.515020e+02 7.314296e-02
8.652740e+02 7.477806e-02
8.792690e+02 7.646435e-02
8.934910e+02 7.858255e-02
9.079430e+02 8.075945e-02
9.226280e+02 8.299649e-02
9.375510e+02 8.529563e-02
9.527150e+02 8.765840e-02
9.681240e+02 9.023358e-02
9.837830e+02 9.296424e-02
9.996950e+02 9.577737e-02
1.015860e+03 9.867560e-02
1.032290e+03 1.016612e-01
1.048990e+03 1.052443e-01
1.065960e+03 1.092372e-01
1.083200e+03 1.133811e-01
1.100720e+03 1.176824e-01
1.118520e+03 1.221464e-01
1.136610e+03 1.267798e-01
1.155000e+03 1.315933e-01
1.173680e+03 1.365892e-01
1.192660e+03 1.417744e-01
1.211950e+03 1.471568e-01
1.231550e+03 1.526073e-01
1.251470e+03 1.577705e-01
1.271720e+03 1.631094e-01
1.292290e+03 1.686282e-01
1.313190e+03 1.743325e-01
1.334430e+03 1.808224e-01
1.356010e+03 1.876693e-01
1.377940e+03 1.947735e-01
1.400230e+03 2.021492e-01
1.422880e+03 2.098028e-01
1.445890e+03 2.169844e-01
1.469280e+03 2.243087e-01
1.493040e+03 2.319127e-01
1.517190e+03 2.429700e-01
1.541730e+03 2.546293e-01
1.566670e+03 2.661821e-01
1.592010e+03 2.763022e-01
1.617760e+03 2.866357e-01
1.643920e+03 2.975042e-01
1.670510e+03 3.105022e-01
1.697530e+03 3.230537e-01
1.724990e+03 3.346181e-01
1.752890e+03 3.481047e-01
1.781240e+03 3.597619e-01
1.810050e+03 3.703365e-01
1.839320e+03 3.851799e-01
1.869070e+03 3.990351e-01
1.899300e+03 4.111276e-01
1.930020e+03 4.270626e-01
1.961240e+03 4.457444e-01
1.992960e+03 4.626746e-01
2.025200e+03 4.794109e-01
2.057950e+03 4.983664e-01
2.091240e+03 5.190227e-01
2.125060e+03 5.413028e-01
2.159430e+03 5.641928e-01
2.194360e+03 5.896558e-01
2.229850e+03 4.870394e-01
2.265920e+03 2.721488e-01
2.302570e+03 2.617352e-01
2.339810e+03 2.004791e-01
2.377660e+03 1.926685e-01
2.416110e+03 1.931238e-01
2.455190e+03 1.976940e-01
2.494900e+03 2.014674e-01
2.535260e+03 2.063799e-01
2.576260e+03 2.130818e-01
2.617930e+03 2.194857e-01
2.660270e+03 2.222120e-01
2.703300e+03 2.290710e-01
2.747030e+03 2.155643e-01
2.791460e+03 2.124363e-01
2.836610e+03 2.190332e-01
2.882490e+03 2.249596e-01
2.929110e+03 2.317397e-01
2.976480e+03 2.402406e-01
3.024630e+03 2.486325e-01
3.073550e+03 2.570112e-01
3.123260e+03 2.662660e-01
3.173780e+03 2.679889e-01
3.225110e+03 2.706777e-01
3.277270e+03 2.805951e-01
3.330280e+03 2.905036e-01
3.384150e+03 3.009572e-01
3.438880e+03 3.076883e-01
3.494500e+03 3.142997e-01
3.551020e+03 3.283704e-01
3.608460e+03 3.415305e-01
3.666820e+03 3.547587e-01
3.726130e+03 3.683374e-01
3.786400e+03 3.822045e-01
3.847640e+03 3.973803e-01
3.909870e+03 4.132091e-01
3.973110e+03 4.295607e-01
4.037380e+03 4.465363e-01
4.102680e+03 4.648911e-01
4.169030e+03 4.833049e-01
4.236460e+03 5.070355e-01
4.304980e+03 5.227118e-01
4.374620e+03 5.440427e-01
4.445370e+03 5.650278e-01
4.517270e+03 5.879086e-01
4.590330e+03 6.114208e-01
4.664580e+03 6.361955e-01
4.740030e+03 6.618963e-01
4.816690e+03 6.885503e-01
4.894600e+03 7.155976e-01
4.973770e+03 7.440004e-01
5.054210e+03 7.717651e-01
5.135960e+03 8.014501e-01
5.219030e+03 8.347255e-01
5.303440e+03 8.599194e-01
5.389220e+03 8.991542e-01
5.476390e+03 9.362869e-01
5.564970e+03 9.748940e-01
5.654980e+03 1.014643e+00
5.746440e+03 1.055607e+00
5.839390e+03 1.095941e+00
5.933830e+03 1.146310e+00
6.029810e+03 1.189032e+00
6.127330e+03 1.240042e+00
6.226440e+03 1.293064e+00
6.327150e+03 1.347960e+00
6.429480e+03 1.405251e+00
6.533480e+03 1.465096e+00
6.639150e+03 1.527563e+00
6.746540e+03 1.592800e+00
6.855650e+03 1.660872e+00
6.966540e+03 1.731959e+00
7.079220e+03 1.806169e+00
7.193720e+03 1.883689e+00
7.310070e+03 1.964562e+00
7.428310e+03 2.048934e+00
7.548450e+03 2.137010e+00
7.670540e+03 2.229016e+00
7.794610e+03 2.324990e+00
7.920680e+03 2.425107e+00
8.048790e+03 2.529560e+00
8.178980e+03 2.638556e+00
8.311260e+03 2.752287e+00
8.445690e+03 2.870996e+00
8.582290e+03 2.994816e+00
8.721110e+03 3.123949e+00
8.862160e+03 3.258569e+00
9.005500e+03 3.398898e+00
9.151160e+03 3.545256e+00
9.299170e+03 3.697858e+00
9.449580e+03 3.857016e+00
9.602420e+03 4.022970e+00
9.757730e+03 4.195944e+00
9.915550e+03 4.376226e+00
1.007590e+04 4.563981e+00
1.023890e+04 4.759617e+00
1.040450e+04 4.963413e+00
1.057280e+04 5.175690e+00
1.074380e+04 5.396763e+00
1.091760e+04 5.626985e+00
1.109420e+04 5.866669e+00
1.127360e+04 6.116152e+00
1.145590e+04 6.375820e+00
1.164120e+04 6.646076e+00
1.182950e+04 6.927264e+00
1.191860e+04 7.062799e+00
1.191880e+04 2.831844e+00
1.202080e+04 2.898300e+00
1.221530e+04 3.027647e+00
1.241280e+04 3.162732e+00
1.261360e+04 3.303875e+00
1.281760e+04 3.451296e+00
1.302500e+04 3.605330e+00
1.323560e+04 3.766186e+00
1.344970e+04 3.934244e+00
1.366720e+04 4.109789e+00
1.373350e+04 4.164242e+00
1.373370e+04 2.985545e+00
1.388830e+04 3.076006e+00
1.411290e+04 3.210483e+00
1.434120e+04 3.350865e+00
1.435270e+04 3.358048e+00
1.435290e+04 2.921571e+00
1.457310e+04 3.033506e+00
1.480890e+04 3.156137e+00
1.504840e+04 3.284209e+00
1.529180e+04 3.418039e+00
1.553910e+04 3.557850e+00
1.579040e+04 3.703962e+00
1.604580e+04 3.856602e+00
1.630540e+04 4.016128e+00
1.656910e+04 4.182780e+00
1.683710e+04 4.356925e+00
1.710940e+04 4.538881e+00
1.738610e+04 4.729005e+00
1.766740e+04 4.927717e+00
1.795310e+04 5.135312e+00
1.824350e+04 5.352263e+00
1.853860e+04 5.578978e+00
1.883840e+04 5.815871e+00
1.914310e+04 6.063437e+00
1.945270e+04 6.322146e+00
1.976740e+04 6.592544e+00
2.008710e+04 6.875090e+00
2.041200e+04 7.170381e+00
2.074210e+04 7.478969e+00
2.107760e+04 7.801503e+00
2.141850e+04 8.138561e+00
2.176500e+04 8.490883e+00
2.211700e+04 8.859060e+00
2.247470e+04 9.243849e+00
2.283820e+04 9.646051e+00
2.320760e+04 1.006640e+01
2.358300e+04 1.050580e+01
2.396440e+04 1.096499e+01
2.435200e+04 1.144498e+01
2.474590e+04 1.194667e+01
2.514620e+04 1.247107e+01
2.555290e+04 1.301913e+01
2.596620e+04 1.359203e+01
2.638610e+04 1.419080e+01
2.681290e+04 1.481672e+01
2.724660e+04 1.547097e+01
2.768730e+04 1.615480e+01
2.813510e+04 1.686963e+01
2.859020e+04 1.761680e+01
2.905260e+04 1.839777e+01
2.952250e+04 1.921414e+01
3.000000e+04 2.006742e+01
