# material=B density=2.46
# Photon Energy [eV]  Attenuation Length [um]
1.000000e+01 7.012305e-03
1.016170e+01 7.166547e-03
1.032610e+01 7.324235e-03
1.049310e+01 7.485339e-03
1.066280e+01 7.649976e-03
1.083530e+01 7.818260e-03
1.101060e+01 7.990293e-03
1.118860e+01 8.165995e-03
1.136960e+01 8.345631e-03
1.155350e+01 8.529236e-03
1.174040e+01 8.716877e-03
1.193030e+01 8.908602e-03
1.212320e+01 9.104527e-03
1.231930e+01 9.304792e-03
1.251860e+01 9.509518e-03
1.272100e+01 9.718617e-03
1.292680e+01 9.932446e-03
1.313590e+01 1.015099e-02
1.334830e+01 1.037423e-02
1.356420e+01 1.060239e-02
1.378360e+01 1.083568e-02
1.400660e+01 1.107409e-02
1.423310e+01 1.131760e-02
1.446330e+01 1.156652e-02
1.469730e+01 1.182109e-02
1.493500e+01 1.208103e-02
1.517650e+01 1.235330e-02
1.542200e+01 1.266976e-02
1.567140e+01 1.299414e-02
1.592490e+01 1.332697e-02
1.618250e+01 1.366828e-02
1.644420e+01 1.401834e-02
1.671020e+01 1.437736e-02
1.698050e+01 1.474562e-02
1.725510e+01 1.512328e-02
1.753420e+01 1.551056e-02
1.781780e+01 1.590776e-02
1.810600e+01 1.631528e-02
1.839890e+01 1.673312e-02
1.869640e+01 1.716150e-02
1.899880e+01 1.760104e-02
1.930610e+01 1.805195e-02
1.961840e+01 1.851420e-02
1.993570e+01 1.898832e-02
2.025820e+01 1.947470e-02
2.058580e+01 1.997349e-02
2.091880e+01 2.048499e-02
2.125710e+01 2.100973e-02
2.160090e+01 2.154774e-02
2.195030e+01 2.209956e-02
2.230530e+01 2.266542e-02
2.266610e+01 2.324602e-02
2.303270e+01 2.384137e-02
2.340530e+01 2.445203e-02
2.378380e+01 2.507448e-02
2.416850e+01 2.570957e-02
2.455940e+01 2.636068e-02
2.495660e+01 2.702832e-02
2.536030e+01 2.771289e-02
2.577050e+01 2.841478e-02
2.618730e+01 2.913442e-02
2.661090e+01 2.987236e-02
2.704130e+01 3.062890e-02
2.747860e+01 3.140457e-02
2.792310e+01 3.220000e-02
2.837470e+01 3.301551e-02
2.883370e+01 3.385172e-02
2.930000e+01 3.470902e-02
2.977390e+01 3.558810e-02
3.025550e+01 3.645833e-02
3.074490e+01 3.732138e-02
3.124210e+01 3.820492e-02
3.174750e+01 3.910972e-02
3.226090e+01 4.003578e-02
3.278270e+01 4.098396e-02
3.331300e+01 4.195464e-02
3.385180e+01 4.294815e-02
3.439930e+01 4.396526e-02
3.495570e+01 4.500647e-02
3.552110e+01 4.612516e-02
3.609560e+01 4.727623e-02
3.667940e+01 4.845610e-02
3.727270e+01 4.966546e-02
3.787550e+01 5.090495e-02
3.848820e+01 5.217575e-02
3.911070e+01 5.347813e-02
3.974320e+01 5.481246e-02
4.038610e+01 5.621402e-02
4.103930e+01 5.767444e-02
4.170310e+01 5.917297e-02
4.237760e+01 6.071038e-02
4.306300e+01 6.228765e-02
4.375950e+01 6.390571e-02
4.446730e+01 6.556604e-02
4.518650e+01 6.728317e-02
4.591740e+01 6.908581e-02
4.666000e+01 7.093655e-02
4.741470e+01 7.283672e-02
4.818160e+01 7.478770e-02
4.896090e+01 7.679135e-02
4.975280e+01 7.884891e-02
5.055760e+01 8.104989e-02
5.137530e+01 8.335287e-02
5.220620e+01 8.572129e-02
5.305060e+01 8.815714e-02
5.390870e+01 9.066346e-02
5.478060e+01 9.324002e-02
5.566670e+01 9.588998e-02
5.656700e+01 9.861421e-02
5.748200e+01 1.014159e-01
5.841170e+01 1.042976e-01
5.935640e+01 1.072979e-01
6.031650e+01 1.104461e-01
6.129210e+01 1.137175e-01
6.228340e+01 1.171617e-01
6.329080e+01 1.207098e-01
6.431450e+01 1.243644e-01
6.535470e+01 1.281300e-01
6.641180e+01 1.320103e-01
6.748590e+01 1.360079e-01
6.857750e+01 1.401264e-01
6.968670e+01 1.444434e-01
7.081380e+01 1.489408e-01
7.195910e+01 1.536878e-01
7.312300e+01 1.586082e-01
7.430570e+01 1.636859e-01
7.550760e+01 1.689239e-01
7.672890e+01 1.743319e-01
7.796990e+01 1.799145e-01
7.923100e+01 1.857561e-01
8.051250e+01 1.917890e-01
8.181470e+01 1.981271e-01
8.313800e+01 2.047438e-01
8.448270e+01 2.115879e-01
8.584910e+01 2.186597e-01
8.723770e+01 2.259659e-01
8.864870e+01 2.335474e-01
9.008250e+01 2.414229e-01
9.153950e+01 2.496221e-01
9.302010e+01 2.582044e-01
9.452460e+01 2.670806e-01
9.605350e+01 2.762610e-01
9.760710e+01 2.857540e-01
9.918580e+01 2.955683e-01
1.007900e+02 3.061633e-01
1.024200e+02 3.175892e-01
1.040770e+02 3.293705e-01
1.057600e+02 3.416063e-01
1.074710e+02 3.540623e-01
1.092090e+02 3.663159e-01
1.109750e+02 3.784705e-01
1.127700e+02 3.908422e-01
1.145940e+02 4.039689e-01
1.164480e+02 4.185232e-01
1.183310e+02 4.338871e-01
1.202450e+02 4.498155e-01
1.221900e+02 4.663302e-01
1.241660e+02 4.834522e-01
1.261750e+02 5.012041e-01
1.282150e+02 5.196023e-01
1.302890e+02 5.386848e-01
1.323970e+02 5.585021e-01
1.345380e+02 5.794182e-01
1.367140e+02 6.012715e-01
1.389250e+02 6.239548e-01
1.411720e+02 6.474906e-01
1.434560e+02 6.719179e-01
1.457760e+02 6.972628e-01
1.481340e+02 7.222323e-01
1.505300e+02 7.474423e-01
1.529640e+02 7.766279e-01
1.554390e+02 8.087949e-01
1.579530e+02 8.436791e-01
1.605070e+02 8.800554e-01
1.631030e+02 9.180064e-01
1.657420e+02 9.576111e-01
1.684220e+02 9.989142e-01
1.711460e+02 1.040231e+00
1.739150e+02 1.080703e+00
1.767270e+02 1.119444e+00
1.795860e+02 1.159467e+00
1.824910e+02 1.201554e+00
1.854420e+02 1.248486e+00
1.879000e+02 1.288373e+00
1.881000e+02 4.620545e-02
1.884420e+02 4.638427e-02
1.914890e+02 4.799581e-02
1.945870e+02 4.966375e-02
1.977340e+02 5.135335e-02
2.009320e+02 5.306996e-02
2.041820e+02 5.484363e-02
2.074850e+02 5.667656e-02
2.108400e+02 5.857070e-02
2.142510e+02 6.071168e-02
2.177160e+02 6.297176e-02
2.212370e+02 6.534919e-02
2.248160e+02 6.781673e-02
2.284520e+02 7.037693e-02
2.321470e+02 7.303445e-02
2.359020e+02 7.579185e-02
2.397170e+02 7.865275e-02
2.435950e+02 8.162195e-02
2.475350e+02 8.470370e-02
2.515380e+02 8.790120e-02
2.556070e+02 9.121984e-02
2.597410e+02 9.466420e-02
2.639420e+02 9.823888e-02
2.682110e+02 1.019482e-01
2.725490e+02 1.057969e-01
2.769570e+02 1.098642e-01
2.814370e+02 1.141850e-01
2.859890e+02 1.187411e-01
2.906150e+02 1.234881e-01
2.953150e+02 1.284244e-01
3.000920e+02 1.335588e-01
3.049450e+02 1.388985e-01
3.098780e+02 1.444530e-01
3.148900e+02 1.502273e-01
3.199830e+02 1.562327e-01
3.251580e+02 1.624792e-01
3.304180e+02 1.689729e-01
3.357620e+02 1.757259e-01
3.411920e+02 1.827532e-01
3.467110e+02 1.900568e-01
3.523190e+02 1.976521e-01
3.580170e+02 2.055536e-01
3.638080e+02 2.137721e-01
3.696920e+02 2.223179e-01
3.756720e+02 2.312074e-01
3.817480e+02 2.404490e-01
3.879220e+02 2.500349e-01
3.941970e+02 2.599497e-01
4.005730e+02 2.707026e-01
4.070520e+02 2.820867e-01
4.136350e+02 2.939656e-01
4.203260e+02 3.063359e-01
4.271240e+02 3.192231e-01
4.340320e+02 3.326586e-01
4.410520e+02 3.466608e-01
4.481860e+02 3.612871e-01
4.554350e+02 3.767264e-01
4.628020e+02 3.929829e-01
4.702870e+02 4.100234e-01
4.778940e+02 4.277946e-01
4.856230e+02 4.463359e-01
4.934780e+02 4.656822e-01
5.014590e+02 4.858663e-01
5.095700e+02 5.069264e-01
5.178120e+02 5.289462e-01
5.261870e+02 5.520784e-01
5.346980e+02 5.765439e-01
5.433460e+02 6.022602e-01
5.521340e+02 6.291295e-01
5.610650e+02 6.564412e-01
5.701390e+02 6.846514e-01
5.793610e+02 7.147405e-01
5.887320e+02 7.463596e-01
5.982540e+02 7.795162e-01
6.079300e+02 8.141486e-01
6.177630e+02 8.503177e-01
6.277550e+02 8.881736e-01
6.379080e+02 9.287898e-01
6.482260e+02 9.729516e-01
6.587110e+02 1.020389e+00
6.693650e+02 1.070127e+00
6.801910e+02 1.118744e+00
6.911930e+02 1.166696e+00
7.023720e+02 1.215932e+00
7.137330e+02 1.269947e+00
7.252770e+02 1.328324e+00
7.370080e+02 1.389398e+00
7.489280e+02 1.453265e+00
7.610420e+02 1.520075e+00
7.733510e+02 1.590078e+00
7.858590e+02 1.663699e+00
7.985700e+02 1.741075e+00
8.114860e+02 1.822077e+00
8.246110e+02 1.906840e+00
8.379490e+02 1.995548e+00
8.515020e+02 2.088992e+00
8.652740e+02 2.187542e+00
8.792690e+02 2.291435e+00
8.934910e+02 2.400358e+00
9.079430e+02 2.514426e+00
9.226280e+02 2.633863e+00
9.375510e+02 2.757290e+00
9.527150e+02 2.886102e+00
9.681240e+02 3.020591e+00
9.837830e+02 3.161324e+00
9.996950e+02 3.308914e+00
1.015860e+03 3.463698e+00
1.032290e+03 3.629846e+00
1.048990e+03 3.804521e+00
1.065960e+03 3.988184e+00
1.083200e+03 4.180573e+00
1.100720e+03 4.382267e+00
1.118520e+03 4.593756e+00
1.136610e+03 4.815418e+00
1.155000e+03 5.047853e+00
1.173680e+03 5.291496e+00
1.192660e+03 5.546840e+00
1.211950e+03 5.814521e+00
1.231550e+03 6.095062e+00
1.251470e+03 6.389648e+00
1.271720e+03 6.698938e+00
1.292290e+03 7.023750e+00
1.313190e+03 7.364348e+00
1.334430e+03 7.721456e+00
1.356010e+03 8.095855e+00
1.377940e+03 8.488388e+00
1.400230e+03 8.899941e+00
1.422880e+03 9.331383e+00
1.445890e+03 9.783948e+00
1.469280e+03 1.025909e+01
1.493040e+03 1.075816e+01
1.517190e+03 1.128656e+01
1.541730e+03 1.184152e+01
1.566670e+03 1.242377e+01
1.592010e+03 1.303457e+01
1.617760e+03 1.367553e+01
1.643920e+03 1.434798e+01
1.670510e+03 1.505358e+01
1.697530e+03 1.579394e+01
1.724990e+03 1.657085e+01
1.752890e+03 1.739075e+01
1.781240e+03 1.825290e+01
1.810050e+03 1.915903e+01
1.839320e+03 2.011063e+01
1.869070e+03 2.110975e+01
1.899300e+03 2.215857e+01
1.930020e+03 2.325888e+01
1.961240e+03 2.441381e+01
1.992960e+03 2.562619e+01
2.025200e+03 2.687386e+01
2.057950e+03 2.821502e+01
2.091240e+03 2.962473e+01
2.125060e+03 3.110574e+01
2.159430e+03 3.266135e+01
2.194360e+03 3.429984e+01
2.229850e+03 3.601886e+01
2.265920e+03 3.782637e+01
2.302570e+03 3.972866e+01
2.339810e+03 4.172586e+01
2.377660e+03 4.382669e+01
2.416110e+03 4.603524e+01
2.455190e+03 4.835701e+01
2.494900e+03 5.079822e+01
2.535260e+03 5.336580e+01
2.576260e+03 5.606520e+01
2.617930e+03 5.890401e+01
2.660270e+03 6.188926e+01
2.703300e+03 6.502901e+01
2.747030e+03 6.833102e+01
2.791460e+03 7.180452e+01
2.836610e+03 7.545611e+01
2.882490e+03 7.929846e+01
2.929110e+03 8.334053e+01
2.976480e+03 8.759277e+01
3.024630e+03 9.206577e+01
3.073550e+03 9.677217e+01
3.123260e+03 1.017227e+02
3.173780e+03 1.069319e+02
3.225110e+03 1.124134e+02
3.277270e+03 1.181793e+02
3.330280e+03 1.242497e+02
3.384150e+03 1.306366e+02
3.438880e+03 1.373552e+02
3.494500e+03 1.444288e+02
3.551020e+03 1.518717e+02
3.608460e+03 1.597091e+02
3.666820e+03 1.679551e+02
3.726130e+03 1.766353e+02
3.786400e+03 1.857772e+02
3.847640e+03 1.953978e+02
3.909870e+03 2.055207e+02
3.973110e+03 2.161840e+02
4.037380e+03 2.273336e+02
4.102680e+03 2.391477e+02
4.169030e+03 2.515706e+02
4.236460e+03 2.646476e+02
4.304980e+03 2.784103e+02
4.374620e+03 2.929025e+02
4.445370e+03 3.081517e+02
4.517270e+03 3.241985e+02
4.590330e+03 3.410940e+02
4.664580e+03 3.588833e+02
4.740030e+03 3.776157e+02
4.816690e+03 3.973221e+02
4.894600e+03 4.180837e+02
4.973770e+03 4.399370e+02
5.054210e+03 4.629433e+02
5.135960e+03 4.871718e+02
5.219030e+03 5.126807e+02
5.303440e+03 5.395470e+02
5.389220e+03 5.678360e+02
5.476390e+03 5.976318e+02
5.564970e+03 6.290081e+02
5.654980e+03 6.620558e+02
5.746440e+03 6.968665e+02
5.839390e+03 7.335330e+02
5.933830e+03 7.721501e+02
6.029810e+03 8.128336e+02
6.127330e+03 8.556972e+02
6.226440e+03 9.008536e+02
6.327150e+03 9.484328e+02
6.429480e+03 9.985553e+02
6.533480e+03 1.051386e+03
6.639150e+03 1.107036e+03
6.746540e+03 1.165681e+03
6.855650e+03 1.227490e+03
6.966540e+03 1.292661e+03
7.079220e+03 1.361311e+03
7.193720e+03 1.433681e+03
7.310070e+03 1.509960e+03
7.428310e+03 1.590377e+03
7.548450e+03 1.675183e+03
7.670540e+03 1.764539e+03
7.794610e+03 1.858757e+03
7.920680e+03 1.958090e+03
8.048790e+03 2.062844e+03
8.178980e+03 2.173383e+03
8.311260e+03 2.289857e+03
8.445690e+03 2.412719e+03
8.582290e+03 2.542365e+03
8.721110e+03 2.678992e+03
8.862160e+03 2.823137e+03
9.005500e+03 2.975245e+03
9.151160e+03 3.135719e+03
9.299170e+03 3.304912e+03
9.449580e+03 3.483625e+03
9.602420e+03 3.672028e+03
9.757730e+03 3.870992e+03
9.915550e+03 4.080559e+03
1.007590e+04 4.301963e+03
1.023890e+04 4.535659e+03
1.040450e+04 4.782290e+03
1.057280e+04 5.042630e+03
1.074380e+04 5.317388e+03
1.091760e+04 5.607468e+03
1.109420e+04 5.913681e+03
1.127360e+04 6.236949e+03
1.145590e+04 6.578213e+03
1.164120e+04 6.938543e+03
1.182950e+04 7.319071e+03
1.202080e+04 7.720793e+03
1.221530e+04 8.145069e+03
1.241280e+04 8.593051e+03
1.261360e+04 9.066197e+03
1.281760e+04 9.565833e+03
1.302500e+04 1.009367e+04
1.323560e+04 1.065093e+04
1.344970e+04 1.123962e+04
1.366720e+04 1.186139e+04
1.388830e+04 1.251818e+04
1.411290e+04 1.321184e+04
1.434120e+04 1.394468e+04
1.457310e+04 1.471859e+04
1.480890e+04 1.553633e+04
1.504840e+04 1.639994e+04
1.529180e+04 1.731221e+04
1.553910e+04 1.827578e+04
1.579040e+04 1.929358e+04
1.604580e+04 2.036864e+04
1.630540e+04 2.150425e+04
1.656910e+04 2.270352e+04
1.683710e+04 2.397013e+04
1.710940e+04 2.530771e+04
1.738610e+04 2.672015e+04
1.766740e+04 2.821179e+04
1.795310e+04 2.978646e+04
1.824350e+04 3.144906e+04
1.853860e+04 3.320403e+04
1.883840e+04 3.505633e+04
1.914310e+04 3.701116e+04
1.945270e+04 3.907390e+04
1.976740e+04 4.125026e+04
2.008710e+04 4.356308e+04
2.041200e+04 4.598541e+04
2.074210e+04 4.854024e+04
2.107760e+04 5.123505e+04
2.141850e+04 5.407705e+04
2.176500e+04 5.707471e+04
2.211700e+04 6.023577e+04
2.247470e+04 6.356931e+04
2.283820e+04 6.708477e+04
2.320760e+04 7.079193e+04
2.358300e+04 7.470148e+04
2.396440e+04 7.882320e+04
2.435200e+04 8.316985e+04
2.474590e+04 8.775277e+04
2.514620e+04 9.258514e+04
2.555290e+04 9.767983e+04
2.596620e+04 1.030517e+05
2.638610e+04 1.087147e+05
2.681290e+04 1.146855e+05
2.724660e+04 1.209806e+05
2.768730e+04 1.276165e+05
2.813510e+04 1.346121e+05
2.859020e+04 1.419876e+05
2.905260e+04 1.497620e+05
2.952250e+04 1.579584e+05
3.000000e+04 1.665979e+05
