# material=Bi density=9.78
# Photon Energy [eV]  Attenuation Length [um]
1.000000e+01 9.076261e-03
1.016170e+01 9.155732e-03
1.032610e+01 9.235979e-03
1.049310e+01 9.316883e-03
1.066280e+01 9.423516e-03
1.083530e+01 9.558234e-03
1.101060e+01 9.694902e-03
1.118860e+01 9.833405e-03
1.136960e+01 9.973993e-03
1.155350e+01 1.014420e-02
1.174040e+01 1.032532e-02
1.193030e+01 1.050968e-02
1.212320e+01 1.069724e-02
1.231930e+01 1.088825e-02
1.251860e+01 1.108268e-02
1.272100e+01 1.128508e-02
1.292680e+01 1.157387e-02
1.313590e+01 1.187002e-02
1.334830e+01 1.217365e-02
1.356420e+01 1.248513e-02
1.378360e+01 1.280456e-02
1.400660e+01 1.314544e-02
1.423310e+01 1.366642e-02
1.446330e+01 1.420813e-02
1.469730e+01 1.477136e-02
1.493500e+01 1.535682e-02
1.517650e+01 1.596548e-02
1.542200e+01 1.670809e-02
1.567140e+01 1.753490e-02
1.592490e+01 1.840266e-02
1.618250e+01 1.931342e-02
1.644420e+01 2.051033e-02
1.671020e+01 2.191230e-02
1.698050e+01 2.341011e-02
1.725510e+01 2.500667e-02
1.753420e+01 2.670875e-02
1.781780e+01 2.852685e-02
1.810600e+01 3.046852e-02
1.839890e+01 3.263035e-02
1.869640e+01 3.495785e-02
1.899880e+01 3.745154e-02
1.930610e+01 4.021051e-02
1.961840e+01 4.351995e-02
1.993570e+01 4.710167e-02
2.025820e+01 5.091513e-02
2.058580e+01 5.500402e-02
2.091880e+01 5.876253e-02
2.125710e+01 6.133957e-02
2.160090e+01 6.402939e-02
2.195030e+01 6.683636e-02
2.230530e+01 6.814285e-02
2.266610e+01 6.947499e-02
2.303270e+01 7.009013e-02
2.340530e+01 6.952734e-02
2.378380e+01 6.577928e-02
2.416850e+01 3.863215e-02
2.455940e+01 2.370737e-02
2.495660e+01 2.242972e-02
2.536030e+01 2.142681e-02
2.577050e+01 2.108007e-02
2.618730e+01 2.073886e-02
2.661090e+01 2.048604e-02
2.704130e+01 2.058930e-02
2.747860e+01 2.069299e-02
2.792310e+01 2.112651e-02
2.837470e+01 2.222869e-02
2.883370e+01 2.353457e-02
2.930000e+01 2.498957e-02
2.977390e+01 2.693537e-02
3.025550e+01 3.005627e-02
3.074490e+01 3.126192e-02
3.124210e+01 3.222833e-02
3.174750e+01 3.323882e-02
3.226090e+01 3.442139e-02
3.278270e+01 3.506921e-02
3.331300e+01 3.488584e-02
3.385180e+01 3.463419e-02
3.439930e+01 3.393762e-02
3.495570e+01 3.325514e-02
3.552110e+01 3.214920e-02
3.609560e+01 3.085910e-02
3.667940e+01 2.962089e-02
3.727270e+01 2.816509e-02
3.787550e+01 2.658186e-02
3.848820e+01 2.508768e-02
3.911070e+01 2.368670e-02
3.974320e+01 2.262145e-02
4.038610e+01 2.160422e-02
4.103930e+01 2.063257e-02
4.170310e+01 1.970484e-02
4.237760e+01 1.904648e-02
4.306300e+01 1.848385e-02
4.375950e+01 1.793781e-02
4.446730e+01 1.740784e-02
4.518650e+01 1.692291e-02
4.591740e+01 1.651059e-02
4.666000e+01 1.610817e-02
4.741470e+01 1.571569e-02
4.818160e+01 1.533266e-02
4.896090e+01 1.495903e-02
4.975280e+01 1.471183e-02
5.055760e+01 1.447312e-02
5.137530e+01 1.423835e-02
5.220620e+01 1.400733e-02
5.305060e+01 1.378006e-02
5.390870e+01 1.361517e-02
5.478060e+01 1.348873e-02
5.566670e+01 1.336347e-02
5.656700e+01 1.323943e-02
5.748200e+01 1.311819e-02
5.841170e+01 1.303298e-02
5.935640e+01 1.294837e-02
6.031650e+01 1.286436e-02
6.129210e+01 1.278084e-02
6.228340e+01 1.271208e-02
6.329080e+01 1.265926e-02
6.431450e+01 1.260669e-02
6.535470e+01 1.255433e-02
6.641180e+01 1.250219e-02
6.748590e+01 1.245025e-02
6.857750e+01 1.253117e-02
6.968670e+01 1.261564e-02
7.081380e+01 1.270074e-02
7.195910e+01 1.278634e-02
7.312300e+01 1.295674e-02
7.430570e+01 1.314630e-02
7.550760e+01 1.333868e-02
7.672890e+01 1.353381e-02
7.796990e+01 1.388899e-02
7.923100e+01 1.432336e-02
8.051250e+01 1.477132e-02
8.181470e+01 1.524666e-02
8.313800e+01 1.574250e-02
8.448270e+01 1.625455e-02
8.584910e+01 1.678319e-02
8.723770e+01 1.735071e-02
8.864870e+01 1.795054e-02
9.008250e+01 1.857116e-02
9.153950e+01 1.921318e-02
9.302010e+01 1.987748e-02
9.452460e+01 2.056470e-02
9.605350e+01 2.163104e-02
9.760710e+01 2.293572e-02
9.918580e+01 2.431881e-02
1.007900e+02 2.578548e-02
1.024200e+02 2.734054e-02
1.040770e+02 2.898955e-02
1.057600e+02 3.073788e-02
1.074710e+02 3.259188e-02
1.092090e+02 3.490721e-02
1.109750e+02 3.747586e-02
1.127700e+02 4.023379e-02
1.145940e+02 4.319469e-02
1.164480e+02 4.637373e-02
1.183310e+02 4.978606e-02
1.202450e+02 5.366471e-02
1.221900e+02 5.785356e-02
1.241660e+02 6.236969e-02
1.261750e+02 6.723902e-02
1.282150e+02 7.248758e-02
1.302890e+02 7.814630e-02
1.323970e+02 8.424696e-02
1.345380e+02 9.005333e-02
1.367140e+02 9.433247e-02
1.389250e+02 9.881498e-02
1.411720e+02 1.035105e-01
1.434560e+02 1.084297e-01
1.457760e+02 1.135820e-01
1.481340e+02 1.189791e-01
1.505300e+02 1.260613e-01
1.529640e+02 1.338412e-01
1.554390e+02 1.421026e-01
1.579530e+02 1.508728e-01
1.605070e+02 1.601806e-01
1.631030e+02 1.700229e-01
1.657420e+02 1.804710e-01
1.684220e+02 1.915596e-01
1.711460e+02 2.030118e-01
1.739150e+02 2.092547e-01
1.767270e+02 2.156871e-01
1.795860e+02 2.203596e-01
1.824910e+02 2.226902e-01
1.854420e+02 2.250442e-01
1.884420e+02 2.268701e-01
1.914890e+02 2.270041e-01
1.945870e+02 2.271393e-01
1.977340e+02 2.248013e-01
2.009320e+02 2.223958e-01
2.041820e+02 2.195619e-01
2.074850e+02 2.134005e-01
2.108400e+02 2.074111e-01
2.142510e+02 2.013946e-01
2.177160e+02 1.948726e-01
2.212370e+02 1.885618e-01
2.248160e+02 1.824561e-01
2.284520e+02 1.748019e-01
2.321470e+02 1.661785e-01
2.359020e+02 1.584155e-01
2.397170e+02 1.515777e-01
2.435950e+02 1.450355e-01
2.475350e+02 1.387756e-01
2.515380e+02 1.327852e-01
2.556070e+02 1.286648e-01
2.597410e+02 1.247387e-01
2.639420e+02 1.209313e-01
2.682110e+02 1.172405e-01
2.725490e+02 1.136624e-01
2.769570e+02 1.101930e-01
2.814370e+02 1.069061e-01
2.859890e+02 1.039620e-01
2.906150e+02 1.010993e-01
2.953150e+02 9.831458e-02
3.000920e+02 9.560749e-02
3.049450e+02 9.297465e-02
3.098780e+02 9.041424e-02
3.148900e+02 8.899263e-02
3.199830e+02 8.774462e-02
3.251580e+02 8.651426e-02
3.304180e+02 8.530134e-02
3.357620e+02 8.410516e-02
3.411920e+02 8.292584e-02
3.467110e+02 8.222966e-02
3.523190e+02 8.167076e-02
3.580170e+02 8.111533e-02
3.638080e+02 8.056394e-02
3.696920e+02 8.001612e-02
3.756720e+02 7.969787e-02
3.817480e+02 7.964362e-02
3.879220e+02 7.958938e-02
3.941970e+02 7.953548e-02
4.005730e+02 7.948164e-02
4.070520e+02 7.942768e-02
4.136350e+02 7.931090e-02
4.203260e+02 7.919230e-02
4.271240e+02 7.907363e-02
4.340320e+02 7.895499e-02
4.410520e+02 7.883683e-02
4.481860e+02 7.871878e-02
4.554350e+02 7.887856e-02
4.628020e+02 7.914677e-02
4.702870e+02 7.941584e-02
4.778940e+02 7.968600e-02
4.856230e+02 7.995685e-02
4.934780e+02 8.022886e-02
5.014590e+02 8.053550e-02
5.095700e+02 8.117143e-02
5.178120e+02 8.181218e-02
5.261870e+02 8.245807e-02
5.346980e+02 8.310907e-02
5.433460e+02 8.376507e-02
5.521340e+02 8.508371e-02
5.610650e+02 8.656637e-02
5.701390e+02 8.809380e-02
5.793610e+02 8.979359e-02
5.887320e+02 9.156765e-02
5.982540e+02 9.340425e-02
6.079300e+02 9.528379e-02
6.177630e+02 9.719667e-02
6.277550e+02 9.915002e-02
6.379080e+02 1.012082e-01
6.482260e+02 1.033931e-01
6.587110e+02 1.056819e-01
6.693650e+02 1.080205e-01
6.801910e+02 1.104337e-01
6.911930e+02 1.128968e-01
7.023720e+02 1.152272e-01
7.137330e+02 1.165623e-01
7.252770e+02 1.171869e-01
7.370080e+02 1.178141e-01
7.489280e+02 1.184451e-01
7.610420e+02 1.191112e-01
7.733510e+02 1.201155e-01
7.858590e+02 1.222275e-01
7.985700e+02 1.253126e-01
8.114860e+02 1.284761e-01
8.246110e+02 1.317188e-01
8.379490e+02 1.350434e-01
8.515020e+02 1.385307e-01
8.652740e+02 1.422069e-01
8.792690e+02 1.460714e-01
8.934910e+02 1.500407e-01
9.079430e+02 1.541178e-01
9.226280e+02 1.583060e-01
9.375510e+02 1.617519e-01
9.527150e+02 1.650359e-01
9.681240e+02 1.681739e-01
9.837830e+02 1.713707e-01
9.996950e+02 1.748015e-01
1.015860e+03 1.784903e-01
1.032290e+03 1.841405e-01
1.048990e+03 1.899926e-01
1.065960e+03 1.960380e-01
1.083200e+03 2.022773e-01
1.100720e+03 2.087190e-01
1.118520e+03 2.153691e-01
1.136610e+03 2.222348e-01
1.155000e+03 2.293210e-01
1.173680e+03 2.366327e-01
1.192660e+03 2.441872e-01
1.211950e+03 2.519863e-01
1.231550e+03 2.600372e-01
1.251470e+03 2.683517e-01
1.271720e+03 2.769355e-01
1.292290e+03 2.857940e-01
1.313190e+03 2.949467e-01
1.334430e+03 3.043959e-01
1.356010e+03 3.141491e-01
1.377940e+03 3.242309e-01
1.400230e+03 3.346426e-01
1.422880e+03 3.453909e-01
1.445890e+03 3.564927e-01
1.469280e+03 3.680296e-01
1.493040e+03 3.800571e-01
1.517190e+03 3.929753e-01
1.541730e+03 4.064088e-01
1.566670e+03 4.203077e-01
1.592010e+03 4.347079e-01
1.617760e+03 4.496111e-01
1.643920e+03 4.650261e-01
1.670510e+03 4.809825e-01
1.697530e+03 4.975014e-01
1.724990e+03 5.146109e-01
1.752890e+03 5.327623e-01
1.781240e+03 5.517316e-01
1.810050e+03 5.715324e-01
1.839320e+03 5.920434e-01
1.869070e+03 6.132977e-01
1.899300e+03 6.353239e-01
1.930020e+03 6.581688e-01
1.961240e+03 6.818566e-01
1.992960e+03 7.064271e-01
2.025200e+03 7.314310e-01
2.057950e+03 7.583563e-01
2.091240e+03 7.864031e-01
2.125060e+03 8.156348e-01
2.159430e+03 8.460937e-01
2.194360e+03 8.779344e-01
2.229850e+03 9.110404e-01
2.265920e+03 9.455888e-01
2.302570e+03 9.816731e-01
2.339810e+03 1.019269e+00
2.377660e+03 1.058579e+00
2.416110e+03 1.099528e+00
2.455190e+03 1.142312e+00
2.494900e+03 1.186988e+00
2.535260e+03 1.233676e+00
2.576260e+03 1.282332e+00
2.579500e+03 1.286214e+00
2.579700e+03 4.818869e-01
2.617930e+03 5.002802e-01
2.660270e+03 5.211426e-01
2.687500e+03 5.348312e-01
2.687700e+03 3.686701e-01
2.703300e+03 3.740565e-01
2.747030e+03 3.894048e-01
2.791460e+03 4.053715e-01
2.836610e+03 4.219942e-01
2.882490e+03 4.392878e-01
2.929110e+03 4.572686e-01
2.976480e+03 4.759703e-01
3.024630e+03 4.954290e-01
3.073550e+03 5.156576e-01
3.123260e+03 5.367156e-01
3.173780e+03 5.586209e-01
3.176800e+03 5.599463e-01
3.177000e+03 4.810681e-01
3.225110e+03 4.994532e-01
3.277270e+03 5.198543e-01
3.330280e+03 5.410695e-01
3.384150e+03 5.631295e-01
3.438880e+03 5.860840e-01
3.494500e+03 6.099569e-01
3.551020e+03 6.347619e-01
3.608460e+03 6.605389e-01
3.666820e+03 6.873702e-01
3.696200e+03 7.011160e-01
3.696400e+03 6.615014e-01
3.726130e+03 6.746610e-01
3.786400e+03 7.018067e-01
3.847640e+03 7.299920e-01
3.909870e+03 7.593141e-01
3.973110e+03 7.897882e-01
3.999000e+03 8.024677e-01
3.999200e+03 7.730319e-01
4.037380e+03 7.904985e-01
4.102680e+03 8.208919e-01
4.169030e+03 8.525601e-01
4.236460e+03 8.856268e-01
4.304980e+03 9.200985e-01
4.374620e+03 9.560193e-01
4.445370e+03 9.935312e-01
4.517270e+03 1.032625e+00
4.590330e+03 1.073400e+00
4.664580e+03 1.115959e+00
4.740030e+03 1.160333e+00
4.816690e+03 1.206600e+00
4.894600e+03 1.254853e+00
4.973770e+03 1.305206e+00
5.054210e+03 1.357698e+00
5.135960e+03 1.412461e+00
5.219030e+03 1.469570e+00
5.303440e+03 1.529146e+00
5.389220e+03 1.591286e+00
5.476390e+03 1.656083e+00
5.564970e+03 1.723652e+00
5.654980e+03 1.794134e+00
5.746440e+03 1.867669e+00
5.839390e+03 1.944360e+00
5.933830e+03 2.024323e+00
6.029810e+03 2.107703e+00
6.127330e+03 2.194713e+00
6.226440e+03 2.285409e+00
6.327150e+03 2.380006e+00
6.429480e+03 2.478649e+00
6.533480e+03 2.581537e+00
6.639150e+03 2.688819e+00
6.746540e+03 2.800662e+00
6.855650e+03 2.917362e+00
6.966540e+03 3.038965e+00
7.079220e+03 3.165790e+00
7.193720e+03 3.298058e+00
7.310070e+03 3.435997e+00
7.428310e+03 3.579714e+00
7.548450e+03 3.729599e+00
7.670540e+03 3.885884e+00
7.794610e+03 4.048741e+00
7.920680e+03 4.218572e+00
8.048790e+03 4.395688e+00
8.178980e+03 4.580225e+00
8.311260e+03 4.772572e+00
8.445690e+03 4.973082e+00
8.582290e+03 5.182272e+00
8.721110e+03 5.400078e+00
8.862160e+03 5.626999e+00
9.005500e+03 5.863804e+00
9.151160e+03 6.110297e+00
9.299170e+03 6.367443e+00
9.449580e+03 6.635270e+00
9.602420e+03 6.914307e+00
9.757730e+03 7.204837e+00
9.915550e+03 7.507728e+00
1.007590e+04 7.830241e+00
1.023890e+04 8.166285e+00
1.040450e+04 8.516289e+00
1.057280e+04 8.880841e+00
1.074380e+04 9.260406e+00
1.091760e+04 9.655592e+00
1.109420e+04 1.006694e+01
1.127360e+04 1.049495e+01
1.145590e+04 1.094027e+01
1.164120e+04 1.140354e+01
1.182950e+04 1.188537e+01
1.202080e+04 1.238630e+01
1.221530e+04 1.290713e+01
1.241280e+04 1.344823e+01
1.261360e+04 1.401060e+01
1.281760e+04 1.459465e+01
1.302500e+04 1.520132e+01
1.323560e+04 1.583093e+01
1.341850e+04 1.639017e+01
1.341870e+04 6.666083e+00
1.344970e+04 6.708523e+00
1.366720e+04 7.011373e+00
1.388830e+04 7.327920e+00
1.411290e+04 7.658711e+00
1.434120e+04 8.004468e+00
1.457310e+04 8.365789e+00
1.480890e+04 8.743489e+00
1.504840e+04 9.138187e+00
1.529180e+04 9.550693e+00
1.553910e+04 9.981801e+00
1.571100e+04 1.028862e+01
1.571120e+04 7.339652e+00
1.579040e+04 7.431620e+00
1.604580e+04 7.732716e+00
1.630540e+04 8.045970e+00
1.638740e+04 8.146520e+00
1.638760e+04 7.184135e+00
1.656910e+04 7.378619e+00
1.683710e+04 7.671336e+00
1.710940e+04 7.977131e+00
1.738610e+04 8.296583e+00
1.766740e+04 8.630497e+00
1.795310e+04 8.979275e+00
1.824350e+04 9.343700e+00
1.853860e+04 9.724459e+00
1.883840e+04 1.012226e+01
1.914310e+04 1.053789e+01
1.945270e+04 1.097215e+01
1.976740e+04 1.142595e+01
2.008710e+04 1.190004e+01
2.041200e+04 1.239543e+01
2.074210e+04 1.291299e+01
2.107760e+04 1.345386e+01
2.141850e+04 1.401898e+01
2.176500e+04 1.460955e+01
2.211700e+04 1.522658e+01
2.247470e+04 1.587133e+01
2.283820e+04 1.654512e+01
2.320760e+04 1.724919e+01
2.358300e+04 1.798499e+01
2.396440e+04 1.875385e+01
2.435200e+04 1.955735e+01
2.474590e+04 2.039704e+01
2.514620e+04 2.127459e+01
2.555290e+04 2.219161e+01
2.596620e+04 2.314997e+01
2.638610e+04 2.415152e+01
2.681290e+04 2.519827e+01
2.724660e+04 2.629225e+01
2.768730e+04 2.743559e+01
2.813510e+04 2.863048e+01
2.859020e+04 2.987937e+01
2.905260e+04 3.118452e+01
2.952250e+04 3.254871e+01
3.000000e+04 3.397442e+01
