# material=Ca density=1.55
# Photon Energy [eV]  Attenuation Length [um]
1.000000e+01 1.435502e+00
1.016170e+01 1.379306e+00
1.032610e+01 1.325326e+00
1.049310e+01 1.273450e+00
1.066280e+01 1.223602e+00
1.083530e+01 1.175715e+00
1.101060e+01 1.129699e+00
1.118860e+01 1.085473e+00
1.136960e+01 1.053070e+00
1.155350e+01 1.025566e+00
1.174040e+01 9.987809e-01
1.193030e+01 9.726931e-01
1.212320e+01 9.472826e-01
1.231930e+01 9.311970e-01
1.251860e+01 9.180923e-01
1.272100e+01 9.051625e-01
1.292680e+01 8.924234e-01
1.313590e+01 8.819074e-01
1.334830e+01 8.744428e-01
1.356420e+01 8.670454e-01
1.378360e+01 8.597102e-01
1.400660e+01 8.524439e-01
1.423310e+01 8.445795e-01
1.446330e+01 8.330509e-01
1.469730e+01 8.216816e-01
1.493500e+01 8.104667e-01
1.517650e+01 7.993990e-01
1.542200e+01 7.885170e-01
1.567140e+01 7.804928e-01
1.592490e+01 7.725545e-01
1.618250e+01 7.646934e-01
1.644420e+01 7.569193e-01
1.671020e+01 7.492167e-01
1.698050e+01 7.413637e-01
1.725510e+01 7.335111e-01
1.753420e+01 7.257441e-01
1.781780e+01 7.180576e-01
1.810600e+01 7.122754e-01
1.839890e+01 7.078858e-01
1.869640e+01 7.035178e-01
1.899880e+01 6.991830e-01
1.930610e+01 6.938610e-01
1.961840e+01 6.840672e-01
1.993570e+01 6.744114e-01
2.025820e+01 6.648917e-01
2.058580e+01 6.555009e-01
2.091880e+01 6.470975e-01
2.125710e+01 6.389665e-01
2.160090e+01 6.309362e-01
2.195030e+01 6.230055e-01
2.230530e+01 6.151767e-01
2.266610e+01 6.061613e-01
2.303270e+01 5.971817e-01
2.340530e+01 5.883376e-01
2.378380e+01 5.796224e-01
2.416850e+01 5.710377e-01
2.455940e+01 5.586506e-01
2.495660e+01 5.443484e-01
2.536030e+01 5.304148e-01
2.577050e+01 5.168369e-01
2.618730e+01 5.036042e-01
2.661090e+01 4.926930e-01
2.704130e+01 4.822370e-01
2.747860e+01 4.563088e-01
2.792310e+01 4.144471e-01
2.837470e+01 3.615421e-01
2.883370e+01 3.074092e-01
2.930000e+01 2.263267e-01
2.977390e+01 1.588972e-01
3.025550e+01 1.961058e-02
3.074490e+01 1.380641e-02
3.124210e+01 1.207562e-02
3.174750e+01 1.118058e-02
3.226090e+01 1.053412e-02
3.278270e+01 9.990248e-03
3.331300e+01 9.868237e-03
3.385180e+01 9.747674e-03
3.439930e+01 9.628595e-03
3.495570e+01 9.608168e-03
3.552110e+01 9.677388e-03
3.609560e+01 9.747083e-03
3.667940e+01 9.926760e-03
3.727270e+01 1.022546e-02
3.787550e+01 1.061229e-02
3.848820e+01 1.108024e-02
3.911070e+01 1.159445e-02
3.974320e+01 1.294827e-02
4.038610e+01 1.446029e-02
4.103930e+01 1.614877e-02
4.170310e+01 1.803446e-02
4.237760e+01 2.014034e-02
4.306300e+01 2.249209e-02
4.375950e+01 2.536945e-02
4.446730e+01 2.869891e-02
4.518650e+01 3.246505e-02
4.591740e+01 3.672555e-02
4.666000e+01 4.154498e-02
4.741470e+01 4.699712e-02
4.818160e+01 5.316462e-02
4.896090e+01 6.014136e-02
4.975280e+01 6.803402e-02
5.055760e+01 7.853591e-02
5.137530e+01 9.312508e-02
5.220620e+01 1.104241e-01
5.305060e+01 1.309367e-01
5.390870e+01 1.552898e-01
5.478060e+01 1.851804e-01
5.566670e+01 2.208262e-01
5.656700e+01 2.633324e-01
5.748200e+01 3.140217e-01
5.841170e+01 3.663205e-01
5.935640e+01 4.219497e-01
6.031650e+01 4.860307e-01
6.129210e+01 5.471029e-01
6.228340e+01 5.875253e-01
6.329080e+01 6.213215e-01
6.431450e+01 6.353450e-01
6.535470e+01 6.353441e-01
6.641180e+01 6.314974e-01
6.748590e+01 6.012543e-01
6.857750e+01 5.724620e-01
6.968670e+01 5.370271e-01
7.081380e+01 5.030209e-01
7.195910e+01 4.728905e-01
7.312300e+01 4.529172e-01
7.430570e+01 4.337852e-01
7.550760e+01 4.154645e-01
7.672890e+01 4.002906e-01
7.796990e+01 3.884224e-01
7.923100e+01 3.769081e-01
8.051250e+01 3.657325e-01
8.181470e+01 3.548908e-01
8.313800e+01 3.443674e-01
8.448270e+01 3.358073e-01
8.584910e+01 3.291324e-01
8.723770e+01 3.225929e-01
8.864870e+01 3.161825e-01
9.008250e+01 3.098991e-01
9.153950e+01 3.037405e-01
9.302010e+01 2.977039e-01
9.452460e+01 2.925830e-01
9.605350e+01 2.914472e-01
9.760710e+01 2.903164e-01
9.918580e+01 2.891887e-01
1.007900e+02 2.880663e-01
1.024200e+02 2.869471e-01
1.040770e+02 2.858342e-01
1.057600e+02 2.856784e-01
1.074710e+02 2.862494e-01
1.092090e+02 2.868218e-01
1.109750e+02 2.873940e-01
1.127700e+02 2.879682e-01
1.145940e+02 2.885429e-01
1.164480e+02 2.893529e-01
1.183310e+02 2.928723e-01
1.202450e+02 2.964382e-01
1.221900e+02 3.000462e-01
1.241660e+02 3.036969e-01
1.261750e+02 3.069636e-01
1.282150e+02 3.093933e-01
1.302890e+02 3.118446e-01
1.323970e+02 3.143165e-01
1.345380e+02 3.168045e-01
1.367140e+02 3.193146e-01
1.389250e+02 3.218436e-01
1.411720e+02 3.243927e-01
1.434560e+02 3.269633e-01
1.457760e+02 3.306431e-01
1.481340e+02 3.362074e-01
1.505300e+02 3.418639e-01
1.529640e+02 3.476152e-01
1.554390e+02 3.534659e-01
1.579530e+02 3.594128e-01
1.605070e+02 3.654584e-01
1.631030e+02 3.716074e-01
1.657420e+02 3.778610e-01
1.684220e+02 3.851269e-01
1.711460e+02 3.964129e-01
1.739150e+02 4.080329e-01
1.767270e+02 4.199880e-01
1.795860e+02 4.322981e-01
1.824910e+02 4.449686e-01
1.854420e+02 4.578765e-01
1.884420e+02 4.709727e-01
1.914890e+02 4.844383e-01
1.945870e+02 4.982950e-01
1.977340e+02 5.125462e-01
2.009320e+02 5.272031e-01
2.041820e+02 5.422811e-01
2.074850e+02 5.577896e-01
2.108400e+02 5.719740e-01
2.142510e+02 5.857297e-01
2.177160e+02 5.998139e-01
2.212370e+02 6.142375e-01
2.248160e+02 6.290115e-01
2.284520e+02 6.441355e-01
2.321470e+02 6.596237e-01
2.359020e+02 6.784946e-01
2.397170e+02 6.980342e-01
2.435950e+02 7.181410e-01
2.475350e+02 7.388240e-01
2.515380e+02 7.600982e-01
2.556070e+02 7.856698e-01
2.597410e+02 8.132912e-01
2.639420e+02 8.418851e-01
2.682110e+02 8.714800e-01
2.725490e+02 9.021187e-01
2.769570e+02 9.282190e-01
2.814370e+02 9.547264e-01
2.859890e+02 9.819868e-01
2.906150e+02 1.010028e+00
2.953150e+02 1.038873e+00
3.000920e+02 1.068555e+00
3.049450e+02 1.099083e+00
3.098780e+02 1.130490e+00
3.148900e+02 1.162600e+00
3.199830e+02 1.193350e+00
3.251580e+02 1.224917e+00
3.304180e+02 1.257327e+00
3.357620e+02 1.290586e+00
3.411920e+02 1.324725e+00
3.461000e+02 1.355870e+00
3.463000e+02 1.439919e-01
3.467110e+02 1.443073e-01
3.523190e+02 1.486411e-01
3.580170e+02 1.531044e-01
3.638080e+02 1.577024e-01
3.696920e+02 1.624383e-01
3.756720e+02 1.673176e-01
3.817480e+02 1.723422e-01
3.879220e+02 1.774726e-01
3.941970e+02 1.826498e-01
4.005730e+02 1.864590e-01
4.070520e+02 1.897364e-01
4.136350e+02 1.930700e-01
4.203260e+02 1.964618e-01
4.271240e+02 1.999129e-01
4.340320e+02 2.034251e-01
4.410520e+02 2.070026e-01
4.481860e+02 2.109535e-01
4.554350e+02 2.165853e-01
4.628020e+02 2.235402e-01
4.702870e+02 2.313751e-01
4.778940e+02 2.394858e-01
4.856230e+02 2.478752e-01
4.934780e+02 2.565583e-01
5.014590e+02 2.655495e-01
5.095700e+02 2.748570e-01
5.178120e+02 2.844998e-01
5.261870e+02 2.945182e-01
5.346980e+02 3.049658e-01
5.433460e+02 3.158168e-01
5.521340e+02 3.270566e-01
5.610650e+02 3.390172e-01
5.701390e+02 3.515594e-01
5.793610e+02 3.644419e-01
5.887320e+02 3.777511e-01
5.982540e+02 3.915156e-01
6.079300e+02 4.057734e-01
6.177630e+02 4.205490e-01
6.277550e+02 4.358931e-01
6.379080e+02 4.522041e-01
6.482260e+02 4.697573e-01
6.587110e+02 4.884270e-01
6.693650e+02 5.078463e-01
6.801910e+02 5.267645e-01
6.911930e+02 5.453718e-01
7.023720e+02 5.644366e-01
7.137330e+02 5.856232e-01
7.252770e+02 6.086551e-01
7.370080e+02 6.325928e-01
7.489280e+02 6.574529e-01
7.610420e+02 6.832885e-01
7.733510e+02 7.102652e-01
7.858590e+02 7.387011e-01
7.985700e+02 7.686182e-01
8.114860e+02 7.997441e-01
8.246110e+02 8.321289e-01
8.379490e+02 8.658268e-01
8.515020e+02 9.008183e-01
8.652740e+02 9.371473e-01
8.792690e+02 9.748663e-01
8.934910e+02 1.014100e+00
9.079430e+02 1.054917e+00
9.226280e+02 1.097379e+00
9.375510e+02 1.141633e+00
9.527150e+02 1.187692e+00
9.681240e+02 1.235631e+00
9.837830e+02 1.285520e+00
9.996950e+02 1.337520e+00
1.015860e+03 1.391727e+00
1.032290e+03 1.449286e+00
1.048990e+03 1.509541e+00
1.065960e+03 1.572637e+00
1.083200e+03 1.638357e+00
1.100720e+03 1.706828e+00
1.118520e+03 1.778168e+00
1.136610e+03 1.852477e+00
1.155000e+03 1.929891e+00
1.173680e+03 2.010505e+00
1.192660e+03 2.094518e+00
1.211950e+03 2.182060e+00
1.231550e+03 2.273267e+00
1.251470e+03 2.368253e+00
1.271720e+03 2.467201e+00
1.292290e+03 2.570268e+00
1.313190e+03 2.677628e+00
1.334430e+03 2.789482e+00
1.356010e+03 2.906000e+00
1.377940e+03 3.027393e+00
1.400230e+03 3.153894e+00
1.422880e+03 3.285692e+00
1.445890e+03 3.422955e+00
1.469280e+03 3.566841e+00
1.493040e+03 3.718168e+00
1.517190e+03 3.882363e+00
1.541730e+03 4.054713e+00
1.566670e+03 4.234692e+00
1.592010e+03 4.422779e+00
1.617760e+03 4.619140e+00
1.643920e+03 4.823980e+00
1.670510e+03 5.038115e+00
1.697530e+03 5.261830e+00
1.724990e+03 5.495627e+00
1.752890e+03 5.740718e+00
1.781240e+03 5.997025e+00
1.810050e+03 6.265006e+00
1.839320e+03 6.545014e+00
1.869070e+03 6.837615e+00
1.899300e+03 7.143285e+00
1.930020e+03 7.462636e+00
1.961240e+03 7.796218e+00
1.992960e+03 8.144772e+00
2.025200e+03 8.506687e+00
2.057950e+03 8.887324e+00
2.091240e+03 9.285068e+00
2.125060e+03 9.700534e+00
2.159430e+03 1.013465e+01
2.194360e+03 1.058818e+01
2.229850e+03 1.106189e+01
2.265920e+03 1.155665e+01
2.302570e+03 1.207327e+01
2.339810e+03 1.261295e+01
2.377660e+03 1.317649e+01
2.416110e+03 1.376486e+01
2.455190e+03 1.437919e+01
2.494900e+03 1.502079e+01
2.535260e+03 1.569034e+01
2.576260e+03 1.638932e+01
2.617930e+03 1.711884e+01
2.660270e+03 1.788053e+01
2.703300e+03 1.867496e+01
2.747030e+03 1.950412e+01
2.791460e+03 2.036953e+01
2.836610e+03 2.127178e+01
2.882490e+03 2.221363e+01
2.929110e+03 2.319560e+01
2.976480e+03 2.422017e+01
3.024630e+03 2.528838e+01
3.073550e+03 2.640201e+01
3.123260e+03 2.756256e+01
3.173780e+03 2.877305e+01
3.225110e+03 3.003495e+01
3.277270e+03 3.134900e+01
3.330280e+03 3.271922e+01
3.384150e+03 3.414633e+01
3.438880e+03 3.563325e+01
3.494500e+03 3.718246e+01
3.551020e+03 3.879386e+01
3.608460e+03 4.047393e+01
3.666820e+03 4.222154e+01
3.726130e+03 4.404038e+01
3.786400e+03 4.593567e+01
3.847640e+03 4.790585e+01
3.909870e+03 4.995411e+01
3.973110e+03 5.208664e+01
4.037380e+03 5.430839e+01
4.038400e+03 5.434424e+01
4.038600e+03 5.989770e+00
4.102680e+03 6.233615e+00
4.169030e+03 6.492399e+00
4.236460e+03 6.762734e+00
4.304980e+03 7.045447e+00
4.374620e+03 7.341001e+00
4.445370e+03 7.649989e+00
4.517270e+03 7.973081e+00
4.590330e+03 8.310798e+00
4.664580e+03 8.664006e+00
4.740030e+03 9.033298e+00
4.816690e+03 9.419387e+00
4.894600e+03 9.823162e+00
4.973770e+03 1.024544e+01
5.054210e+03 1.068689e+01
5.135960e+03 1.114863e+01
5.219030e+03 1.163142e+01
5.303440e+03 1.213652e+01
5.389220e+03 1.266473e+01
5.476390e+03 1.321711e+01
5.564970e+03 1.379495e+01
5.654980e+03 1.439926e+01
5.746440e+03 1.503136e+01
5.839390e+03 1.569241e+01
5.933830e+03 1.638416e+01
6.029810e+03 1.710782e+01
6.127330e+03 1.786467e+01
6.226440e+03 1.865662e+01
6.327150e+03 1.948506e+01
6.429480e+03 2.035129e+01
6.533480e+03 2.125836e+01
6.639150e+03 2.220708e+01
6.746540e+03 2.319989e+01
6.855650e+03 2.423869e+01
6.966540e+03 2.532510e+01
7.079220e+03 2.646271e+01
7.193720e+03 2.765261e+01
7.310070e+03 2.889839e+01
7.428310e+03 3.020113e+01
7.548450e+03 3.156510e+01
7.670540e+03 3.299284e+01
7.794610e+03 3.448632e+01
7.920680e+03 3.604942e+01
8.048790e+03 3.768653e+01
8.178980e+03 3.939976e+01
8.311260e+03 4.119145e+01
8.445690e+03 4.306759e+01
8.582290e+03 4.503296e+01
8.721110e+03 4.709082e+01
8.862160e+03 4.924412e+01
9.005500e+03 5.149492e+01
9.151160e+03 5.385593e+01
9.299170e+03 5.632710e+01
9.449580e+03 5.891114e+01
9.602420e+03 6.162008e+01
9.757730e+03 6.445797e+01
9.915550e+03 6.742434e+01
1.007590e+04 7.053310e+01
1.023890e+04 7.378890e+01
1.040450e+04 7.719817e+01
1.057280e+04 8.076878e+01
1.074380e+04 8.450797e+01
1.091760e+04 8.842447e+01
1.109420e+04 9.252631e+01
1.127360e+04 9.682235e+01
1.145590e+04 1.013221e+02
1.164120e+04 1.060361e+02
1.182950e+04 1.109745e+02
1.202080e+04 1.161473e+02
1.221530e+04 1.215677e+02
1.241280e+04 1.272451e+02
1.261360e+04 1.331949e+02
1.281760e+04 1.394281e+02
1.302500e+04 1.459612e+02
1.323560e+04 1.528054e+02
1.344970e+04 1.599789e+02
1.366720e+04 1.674963e+02
1.388830e+04 1.753761e+02
1.411290e+04 1.836341e+02
1.434120e+04 1.922916e+02
1.457310e+04 2.013659e+02
1.480890e+04 2.108804e+02
1.504840e+04 2.208546e+02
1.529180e+04 2.313125e+02
1.553910e+04 2.422778e+02
1.579040e+04 2.537764e+02
1.604580e+04 2.658361e+02
1.630540e+04 2.784858e+02
1.656910e+04 2.917527e+02
1.683710e+04 3.056699e+02
1.710940e+04 3.202689e+02
1.738610e+04 3.355868e+02
1.766740e+04 3.516611e+02
1.795310e+04 3.685276e+02
1.824350e+04 3.862302e+02
1.853860e+04 4.048100e+02
1.883840e+04 4.243121e+02
1.914310e+04 4.447891e+02
1.945270e+04 4.662875e+02
1.976740e+04 4.888644e+02
2.008710e+04 5.124330e+02
2.041200e+04 5.373183e+02
2.074210e+04 5.634376e+02
2.107760e+04 5.908590e+02
2.141850e+04 6.196438e+02
2.176500e+04 6.498685e+02
2.211700e+04 6.815957e+02
2.247470e+04 7.149033e+02
2.283820e+04 7.498819e+02
2.320760e+04 7.866046e+02
2.358300e+04 8.251685e+02
2.396440e+04 8.656600e+02
2.435200e+04 9.081875e+02
2.474590e+04 9.528403e+02
2.514620e+04 9.997473e+02
2.555290e+04 1.048998e+03
2.596620e+04 1.100734e+03
2.638610e+04 1.155071e+03
2.681290e+04 1.212148e+03
2.724660e+04 1.272102e+03
2.768730e+04 1.335081e+03
2.813510e+04 1.401242e+03
2.859020e+04 1.470745e+03
2.905260e+04 1.543760e+03
2.952250e+04 1.620480e+03
3.000000e+04 1.701091e+03
