# material=Ce density=6.689
# Photon Energy [eV]  Attenuation Length [um]
1.000000e+01 3.877817e-02
1.016170e+01 4.002254e-02
1.032610e+01 4.130668e-02
1.049310e+01 4.263215e-02
1.066280e+01 4.400036e-02
1.083530e+01 4.541239e-02
1.101060e+01 4.686965e-02
1.118860e+01 4.837317e-02
1.136960e+01 4.992582e-02
1.155350e+01 5.152790e-02
1.174040e+01 5.318147e-02
1.193030e+01 5.488777e-02
1.212320e+01 5.664908e-02
1.231930e+01 5.846659e-02
1.251860e+01 6.034330e-02
1.272100e+01 6.227902e-02
1.292680e+01 6.391644e-02
1.313590e+01 6.536456e-02
1.334830e+01 6.684510e-02
1.356420e+01 6.835960e-02
1.378360e+01 6.990837e-02
1.400660e+01 7.293217e-02
1.423310e+01 7.648877e-02
1.446330e+01 8.021905e-02
1.469730e+01 8.413168e-02
1.493500e+01 8.775656e-02
1.517650e+01 9.145745e-02
1.542200e+01 9.531481e-02
1.567140e+01 9.933443e-02
1.592490e+01 1.032146e-01
1.618250e+01 1.071696e-01
1.644420e+01 1.101560e-01
1.671020e+01 1.126477e-01
1.698050e+01 1.151957e-01
1.725510e+01 1.175850e-01
1.753420e+01 1.191441e-01
1.781780e+01 1.207238e-01
1.810600e+01 1.220710e-01
1.839890e+01 1.216409e-01
1.869640e+01 1.212115e-01
1.899880e+01 1.207841e-01
1.930610e+01 1.197809e-01
1.961840e+01 1.175284e-01
1.993570e+01 1.153179e-01
2.025820e+01 1.125169e-01
2.058580e+01 1.081472e-01
2.091880e+01 1.016388e-01
2.125710e+01 9.090335e-02
2.160090e+01 7.724840e-02
2.195030e+01 6.269393e-02
2.230530e+01 4.851714e-02
2.266610e+01 2.618040e-02
2.303270e+01 1.258392e-02
2.340530e+01 8.017562e-03
2.378380e+01 7.378488e-03
2.416850e+01 7.288480e-03
2.455940e+01 7.199622e-03
2.495660e+01 7.216823e-03
2.536030e+01 7.270422e-03
2.577050e+01 7.399398e-03
2.618730e+01 7.575131e-03
2.661090e+01 7.755123e-03
2.704130e+01 8.020383e-03
2.747860e+01 8.361522e-03
2.792310e+01 8.715534e-03
2.837470e+01 9.025127e-03
2.883370e+01 9.345791e-03
2.930000e+01 9.814409e-03
2.977390e+01 1.032260e-02
3.025550e+01 1.089998e-02
3.074490e+01 1.151341e-02
3.124210e+01 1.211918e-02
3.174750e+01 1.268625e-02
3.226090e+01 1.327986e-02
3.278270e+01 1.396166e-02
3.331300e+01 1.486765e-02
3.385180e+01 1.583233e-02
3.439930e+01 1.685966e-02
3.495570e+01 1.795377e-02
3.552110e+01 1.903805e-02
3.609560e+01 2.015830e-02
3.667940e+01 2.134446e-02
3.727270e+01 2.260044e-02
3.787550e+01 2.392458e-02
3.848820e+01 2.532648e-02
3.911070e+01 2.681038e-02
3.974320e+01 2.838120e-02
4.038610e+01 3.020012e-02
4.103930e+01 3.220957e-02
4.170310e+01 3.435266e-02
4.237760e+01 3.674772e-02
4.306300e+01 3.940268e-02
4.375950e+01 4.224947e-02
4.446730e+01 4.493567e-02
4.518650e+01 4.718924e-02
4.591740e+01 4.955586e-02
4.666000e+01 5.204103e-02
4.741470e+01 5.455718e-02
4.818160e+01 5.714869e-02
4.896090e+01 5.986329e-02
4.975280e+01 6.279035e-02
5.055760e+01 6.630052e-02
5.137530e+01 7.000662e-02
5.220620e+01 7.391992e-02
5.305060e+01 7.774623e-02
5.390870e+01 8.080267e-02
5.478060e+01 8.397898e-02
5.566670e+01 8.728019e-02
5.656700e+01 9.071121e-02
5.748200e+01 9.397926e-02
5.841170e+01 9.714108e-02
5.935640e+01 1.004713e-01
6.031650e+01 1.039540e-01
6.129210e+01 1.075577e-01
6.228340e+01 1.112859e-01
6.329080e+01 1.151433e-01
6.431450e+01 1.191348e-01
6.535470e+01 1.232643e-01
6.641180e+01 1.271988e-01
6.748590e+01 1.303443e-01
6.857750e+01 1.335680e-01
6.968670e+01 1.368712e-01
7.081380e+01 1.402559e-01
7.195910e+01 1.437246e-01
7.312300e+01 1.472790e-01
7.430570e+01 1.510318e-01
7.550760e+01 1.551101e-01
7.672890e+01 1.592985e-01
7.796990e+01 1.635999e-01
7.923100e+01 1.680172e-01
8.051250e+01 1.699989e-01
8.181470e+01 1.715038e-01
8.313800e+01 1.730216e-01
8.448270e+01 1.745533e-01
8.584910e+01 1.760981e-01
8.723770e+01 1.776565e-01
8.864870e+01 1.775069e-01
9.008250e+01 1.760565e-01
9.153950e+01 1.746186e-01
9.302010e+01 1.731920e-01
9.452460e+01 1.717772e-01
9.605350e+01 1.703740e-01
9.760710e+01 1.689823e-01
9.918580e+01 1.613730e-01
1.007900e+02 1.519138e-01
1.024200e+02 1.353422e-01
1.040770e+02 1.055947e-01
1.057600e+02 6.583322e-02
1.074710e+02 8.570304e-02
1.092090e+02 6.039577e-02
1.109750e+02 4.785959e-02
1.127700e+02 4.864973e-02
1.145940e+02 4.136495e-02
1.164480e+02 2.437373e-02
1.183310e+02 1.357292e-02
1.202450e+02 8.701819e-03
1.221900e+02 6.532219e-03
1.241660e+02 6.301026e-03
1.261750e+02 6.609127e-03
1.282150e+02 7.328592e-03
1.302890e+02 8.613562e-03
1.323970e+02 1.003559e-02
1.345380e+02 1.149485e-02
1.367140e+02 1.307617e-02
1.389250e+02 1.510296e-02
1.411720e+02 1.807604e-02
1.434560e+02 2.190554e-02
1.457760e+02 2.686736e-02
1.481340e+02 3.161951e-02
1.505300e+02 3.675345e-02
1.529640e+02 4.315463e-02
1.554390e+02 5.067072e-02
1.579530e+02 5.801024e-02
1.605070e+02 6.559639e-02
1.631030e+02 7.417507e-02
1.657420e+02 8.544885e-02
1.684220e+02 9.871500e-02
1.711460e+02 1.129917e-01
1.739150e+02 1.257384e-01
1.767270e+02 1.399210e-01
1.795860e+02 1.570863e-01
1.824910e+02 1.763634e-01
1.854420e+02 1.971544e-01
1.884420e+02 2.203434e-01
1.914890e+02 2.360836e-01
1.945870e+02 2.504972e-01
1.977340e+02 2.657879e-01
2.009320e+02 2.767036e-01
2.041820e+02 2.874420e-01
2.074850e+02 2.911787e-01
2.108400e+02 2.948985e-01
2.142510e+02 2.920693e-01
2.177160e+02 2.870440e-01
2.212370e+02 2.821052e-01
2.248160e+02 2.772530e-01
2.284520e+02 2.724827e-01
2.321470e+02 2.651773e-01
2.359020e+02 2.576802e-01
2.397170e+02 2.503936e-01
2.435950e+02 2.429126e-01
2.475350e+02 2.344393e-01
2.515380e+02 2.262601e-01
2.556070e+02 2.183682e-01
2.597410e+02 2.111876e-01
2.639420e+02 2.043234e-01
2.682110e+02 1.979885e-01
2.725490e+02 1.941139e-01
2.769570e+02 1.903147e-01
2.814370e+02 1.901786e-01
2.859890e+02 1.901620e-01
2.906150e+02 1.901457e-01
2.953150e+02 1.911155e-01
3.000920e+02 1.923748e-01
3.049450e+02 1.920780e-01
3.098780e+02 1.917827e-01
3.148900e+02 1.914871e-01
3.199830e+02 1.911921e-01
3.251580e+02 1.908976e-01
3.304180e+02 1.906038e-01
3.357620e+02 1.906307e-01
3.411920e+02 1.918792e-01
3.467110e+02 1.931364e-01
3.523190e+02 1.944017e-01
3.580170e+02 1.956750e-01
3.638080e+02 1.969572e-01
3.696920e+02 1.994431e-01
3.756720e+02 2.022886e-01
3.817480e+02 2.051744e-01
3.879220e+02 2.081013e-01
3.941970e+02 2.110706e-01
4.005730e+02 2.140819e-01
4.070520e+02 2.171363e-01
4.136350e+02 2.202337e-01
4.203260e+02 2.233533e-01
4.271240e+02 2.265029e-01
4.340320e+02 2.296973e-01
4.410520e+02 2.329367e-01
4.481860e+02 2.362220e-01
4.554350e+02 2.395534e-01
4.628020e+02 2.432158e-01
4.702870e+02 2.481086e-01
4.778940e+02 2.531007e-01
4.856230e+02 2.581923e-01
4.934780e+02 2.633872e-01
5.014590e+02 2.686858e-01
5.095700e+02 2.740918e-01
5.178120e+02 2.796061e-01
5.261870e+02 2.852314e-01
5.346980e+02 2.909698e-01
5.433460e+02 2.968437e-01
5.521340e+02 3.036246e-01
5.610650e+02 3.105613e-01
5.701390e+02 3.176556e-01
5.793610e+02 3.249127e-01
5.887320e+02 3.323352e-01
5.982540e+02 3.399272e-01
6.079300e+02 3.476928e-01
6.177630e+02 3.556358e-01
6.277550e+02 3.637602e-01
6.379080e+02 3.720698e-01
6.482260e+02 3.805699e-01
6.587110e+02 3.892639e-01
6.693650e+02 3.987299e-01
6.801910e+02 4.131868e-01
6.911930e+02 4.281688e-01
7.023720e+02 4.436934e-01
7.137330e+02 4.597810e-01
7.252770e+02 4.764520e-01
7.370080e+02 4.941967e-01
7.489280e+02 5.127877e-01
7.610420e+02 5.320798e-01
7.733510e+02 5.520974e-01
7.858590e+02 5.728666e-01
7.985700e+02 5.944192e-01
8.114860e+02 6.167810e-01
8.246110e+02 6.399849e-01
8.379490e+02 6.640620e-01
8.515020e+02 6.890444e-01
8.652740e+02 7.149669e-01
8.792690e+02 7.418633e-01
8.837000e+02 7.504967e-01
8.839000e+02 9.433129e-02
8.934910e+02 9.652092e-02
9.079430e+02 9.987037e-02
9.226280e+02 1.033361e-01
9.375510e+02 1.069223e-01
9.527150e+02 1.106327e-01
9.681240e+02 1.144718e-01
9.837830e+02 1.184444e-01
9.996950e+02 1.225548e-01
1.015860e+03 1.268071e-01
1.032290e+03 1.312665e-01
1.048990e+03 1.360821e-01
1.065960e+03 1.406082e-01
1.083200e+03 1.452842e-01
1.100720e+03 1.501155e-01
1.118520e+03 1.551076e-01
1.136610e+03 1.602655e-01
1.155000e+03 1.655965e-01
1.173680e+03 1.711034e-01
1.192660e+03 1.767931e-01
1.211950e+03 1.826727e-01
1.231550e+03 1.887473e-01
1.251470e+03 1.950240e-01
1.271720e+03 2.015112e-01
1.292290e+03 2.082131e-01
1.313190e+03 2.151374e-01
1.334430e+03 2.325453e-01
1.356010e+03 2.390348e-01
1.377940e+03 2.457075e-01
1.400230e+03 2.525673e-01
1.422880e+03 2.596170e-01
1.445890e+03 2.668624e-01
1.469280e+03 2.745467e-01
1.493040e+03 2.828232e-01
1.517190e+03 2.929620e-01
1.541730e+03 3.036992e-01
1.566670e+03 3.148288e-01
1.592010e+03 3.263716e-01
1.617760e+03 3.383360e-01
1.643920e+03 3.507312e-01
1.670510e+03 3.635896e-01
1.697530e+03 3.769179e-01
1.724990e+03 3.907360e-01
1.752890e+03 4.053807e-01
1.781240e+03 4.206910e-01
1.810050e+03 4.366713e-01
1.839320e+03 4.532596e-01
1.869070e+03 4.704753e-01
1.899300e+03 4.883425e-01
1.930020e+03 5.068945e-01
1.961240e+03 5.261537e-01
1.992960e+03 5.461454e-01
2.025200e+03 5.666279e-01
2.057950e+03 5.884452e-01
2.091240e+03 6.111639e-01
2.125060e+03 6.348151e-01
2.159430e+03 6.594599e-01
2.194360e+03 6.851108e-01
2.229850e+03 7.118262e-01
2.265920e+03 7.396431e-01
2.302570e+03 7.685911e-01
2.339810e+03 7.987886e-01
2.377660e+03 8.301798e-01
2.416110e+03 8.628818e-01
2.455190e+03 8.969483e-01
2.494900e+03 9.324435e-01
2.535260e+03 9.693688e-01
2.576260e+03 1.007851e+00
2.617930e+03 1.047937e+00
2.660270e+03 1.089711e+00
2.703300e+03 1.133242e+00
2.747030e+03 1.178530e+00
2.791460e+03 1.225744e+00
2.836610e+03 1.274969e+00
2.882490e+03 1.326185e+00
2.929110e+03 1.379601e+00
2.976480e+03 1.435264e+00
3.024630e+03 1.493256e+00
3.073550e+03 1.553709e+00
3.123260e+03 1.616707e+00
3.173780e+03 1.682376e+00
3.225110e+03 1.750811e+00
3.277270e+03 1.822145e+00
3.330280e+03 1.896547e+00
3.384150e+03 1.974120e+00
3.438880e+03 2.054992e+00
3.494500e+03 2.139320e+00
3.551020e+03 2.227272e+00
3.608460e+03 2.319025e+00
3.666820e+03 2.414702e+00
3.726130e+03 2.514534e+00
3.786400e+03 2.618663e+00
3.847640e+03 2.727323e+00
3.909870e+03 2.840746e+00
3.973110e+03 2.959079e+00
4.037380e+03 3.082598e+00
4.102680e+03 3.211565e+00
4.169030e+03 3.346197e+00
4.236460e+03 3.486722e+00
4.304980e+03 3.633516e+00
4.374620e+03 3.786919e+00
4.445370e+03 3.947081e+00
4.517270e+03 4.114429e+00
4.590330e+03 4.289279e+00
4.664580e+03 4.472036e+00
4.740030e+03 4.663035e+00
4.816690e+03 4.862764e+00
4.894600e+03 5.071531e+00
4.973770e+03 5.289900e+00
5.054210e+03 5.518423e+00
5.135960e+03 5.757388e+00
5.219030e+03 6.007508e+00
5.303440e+03 6.269461e+00
5.389220e+03 6.543494e+00
5.476390e+03 6.830603e+00
5.564970e+03 7.131186e+00
5.654980e+03 7.446167e+00
5.723300e+03 7.690986e+00
5.723500e+03 2.554385e+00
5.746440e+03 2.583710e+00
5.839390e+03 2.704703e+00
5.933830e+03 2.831300e+00
6.029810e+03 2.963829e+00
6.127330e+03 3.102582e+00
6.164100e+03 3.155961e+00
6.164300e+03 2.291235e+00
6.226440e+03 2.353985e+00
6.327150e+03 2.457938e+00
6.429480e+03 2.566551e+00
6.533480e+03 2.679887e+00
6.548700e+03 2.696752e+00
6.548900e+03 2.390686e+00
6.639150e+03 2.470538e+00
6.746540e+03 2.567542e+00
6.855650e+03 2.668912e+00
6.966540e+03 2.774974e+00
7.079220e+03 2.885832e+00
7.193720e+03 3.001729e+00
7.310070e+03 3.122868e+00
7.428310e+03 3.249541e+00
7.548450e+03 3.381955e+00
7.670540e+03 3.520431e+00
7.794610e+03 3.665200e+00
7.920680e+03 3.816558e+00
8.048790e+03 3.974782e+00
8.178980e+03 4.140229e+00
8.311260e+03 4.313220e+00
8.445690e+03 4.494093e+00
8.582290e+03 4.683167e+00
8.721110e+03 4.880947e+00
8.862160e+03 5.087705e+00
9.005500e+03 5.303831e+00
9.151160e+03 5.529972e+00
9.299170e+03 5.766301e+00
9.449580e+03 6.013529e+00
9.602420e+03 6.271941e+00
9.757730e+03 6.542403e+00
9.915550e+03 6.825108e+00
1.007590e+04 7.120747e+00
1.023890e+04 7.429955e+00
1.040450e+04 7.753320e+00
1.057280e+04 8.091523e+00
1.074380e+04 8.445221e+00
1.091760e+04 8.815177e+00
1.109420e+04 9.202092e+00
1.127360e+04 9.606741e+00
1.145590e+04 1.002995e+01
1.164120e+04 1.047266e+01
1.182950e+04 1.093572e+01
1.202080e+04 1.142000e+01
1.221530e+04 1.192668e+01
1.241280e+04 1.245650e+01
1.261360e+04 1.301082e+01
1.281760e+04 1.359055e+01
1.302500e+04 1.419711e+01
1.323560e+04 1.483137e+01
1.344970e+04 1.549494e+01
1.366720e+04 1.618901e+01
1.388830e+04 1.691507e+01
1.411290e+04 1.767451e+01
1.434120e+04 1.846899e+01
1.457310e+04 1.929989e+01
1.480890e+04 2.016926e+01
1.504840e+04 2.107851e+01
1.529180e+04 2.202960e+01
1.553910e+04 2.302440e+01
1.579040e+04 2.406500e+01
1.604580e+04 2.515348e+01
1.630540e+04 2.629220e+01
1.656910e+04 2.748302e+01
1.683710e+04 2.872869e+01
1.710940e+04 3.003154e+01
1.738610e+04 3.139429e+01
1.766740e+04 3.281977e+01
1.795310e+04 3.431041e+01
1.824350e+04 3.586958e+01
1.853860e+04 3.750024e+01
1.883840e+04 3.920547e+01
1.914310e+04 4.098894e+01
1.945270e+04 4.285387e+01
1.976740e+04 4.480446e+01
2.008710e+04 4.684404e+01
2.041200e+04 4.897679e+01
2.074210e+04 5.120657e+01
2.107760e+04 5.353845e+01
2.141850e+04 5.597646e+01
2.176500e+04 5.852591e+01
2.211700e+04 6.119093e+01
2.247470e+04 6.397696e+01
2.283820e+04 6.688944e+01
2.320760e+04 6.993448e+01
2.358300e+04 7.311728e+01
2.396440e+04 7.644374e+01
2.435200e+04 7.992075e+01
2.474590e+04 8.355468e+01
2.514620e+04 8.735278e+01
2.555290e+04 9.132105e+01
2.596620e+04 9.546841e+01
2.638610e+04 9.980151e+01
2.681290e+04 1.043291e+02
2.724660e+04 1.090590e+02
2.768730e+04 1.140001e+02
2.813510e+04 1.191616e+02
2.859020e+04 1.245533e+02
2.905260e+04 1.301840e+02
2.952250e+04 1.360645e+02
3.000000e+04 1.422058e+02
