# material=Co density=8.9
# Photon Energy [eV]  Attenuation Length [um]
1.000000e+01 1.107607e-02
1.016170e+01 1.095791e-02
1.032610e+01 1.084107e-02
1.049310e+01 1.072551e-02
1.066280e+01 1.061113e-02
1.083530e+01 1.049798e-02
1.101060e+01 1.038613e-02
1.118860e+01 1.027532e-02
1.136960e+01 1.016578e-02
1.155350e+01 1.005739e-02
1.174040e+01 9.950153e-03
1.193030e+01 9.844092e-03
1.212320e+01 9.799015e-03
1.231930e+01 9.761077e-03
1.251860e+01 9.723348e-03
1.272100e+01 9.685596e-03
1.292680e+01 9.648135e-03
1.313590e+01 9.610784e-03
1.334830e+01 9.573536e-03
1.356420e+01 9.536482e-03
1.378360e+01 9.499570e-03
1.400660e+01 9.462821e-03
1.423310e+01 9.426161e-03
1.446330e+01 9.390262e-03
1.469730e+01 9.355819e-03
1.493500e+01 9.321455e-03
1.517650e+01 9.287157e-03
1.542200e+01 9.253081e-03
1.567140e+01 9.219088e-03
1.592490e+01 9.185226e-03
1.618250e+01 9.151528e-03
1.644420e+01 9.117890e-03
1.671020e+01 9.084396e-03
1.698050e+01 9.051073e-03
1.725510e+01 9.044684e-03
1.753420e+01 9.062621e-03
1.781780e+01 9.080562e-03
1.810600e+01 9.098549e-03
1.839890e+01 9.116590e-03
1.869640e+01 9.134622e-03
1.899880e+01 9.152697e-03
1.930610e+01 9.170830e-03
1.961840e+01 9.189027e-03
1.993570e+01 9.207682e-03
2.025820e+01 9.235572e-03
2.058580e+01 9.263508e-03
2.091880e+01 9.291556e-03
2.125710e+01 9.319679e-03
2.160090e+01 9.347870e-03
2.195030e+01 9.376180e-03
2.230530e+01 9.404541e-03
2.266610e+01 9.433020e-03
2.303270e+01 9.461573e-03
2.340530e+01 9.490240e-03
2.378380e+01 9.518938e-03
2.416850e+01 9.547747e-03
2.455940e+01 9.596313e-03
2.495660e+01 9.662406e-03
2.536030e+01 9.728988e-03
2.577050e+01 9.796008e-03
2.618730e+01 9.863473e-03
2.661090e+01 9.931430e-03
2.704130e+01 9.999825e-03
2.747860e+01 1.006869e-02
2.792310e+01 1.013806e-02
2.837470e+01 1.023225e-02
2.883370e+01 1.040992e-02
2.930000e+01 1.059064e-02
2.977390e+01 1.077450e-02
3.025550e+01 1.096156e-02
3.074490e+01 1.115189e-02
3.124210e+01 1.134547e-02
3.174750e+01 1.154248e-02
3.226090e+01 1.174287e-02
3.278270e+01 1.194673e-02
3.331300e+01 1.218525e-02
3.385180e+01 1.245441e-02
3.439930e+01 1.272954e-02
3.495570e+01 1.301073e-02
3.552110e+01 1.329815e-02
3.609560e+01 1.359190e-02
3.667940e+01 1.389218e-02
3.727270e+01 1.419905e-02
3.787550e+01 1.448046e-02
3.848820e+01 1.476533e-02
3.911070e+01 1.505574e-02
3.974320e+01 1.535184e-02
4.038610e+01 1.565386e-02
4.103930e+01 1.596173e-02
4.170310e+01 1.627571e-02
4.237760e+01 1.659434e-02
4.306300e+01 1.691852e-02
4.375950e+01 1.724909e-02
4.446730e+01 1.758611e-02
4.518650e+01 1.792971e-02
4.591740e+01 1.828002e-02
4.666000e+01 1.863695e-02
4.741470e+01 1.899833e-02
4.818160e+01 1.936666e-02
4.896090e+01 1.974218e-02
4.975280e+01 2.012498e-02
5.055760e+01 2.051523e-02
5.137530e+01 2.083972e-02
5.220620e+01 2.114314e-02
5.305060e+01 2.141226e-02
5.390870e+01 2.125737e-02
5.478060e+01 2.110349e-02
5.566670e+01 2.077389e-02
5.656700e+01 2.021445e-02
5.748200e+01 1.792390e-02
5.841170e+01 1.466275e-02
5.935640e+01 1.199493e-02
6.031650e+01 9.812463e-03
6.129210e+01 9.053051e-03
6.228340e+01 8.870260e-03
6.329080e+01 9.100295e-03
6.431450e+01 9.462787e-03
6.535470e+01 9.820415e-03
6.641180e+01 1.017009e-02
6.748590e+01 1.053229e-02
6.857750e+01 1.090745e-02
6.968670e+01 1.129591e-02
7.081380e+01 1.167800e-02
7.195910e+01 1.203390e-02
7.312300e+01 1.240064e-02
7.430570e+01 1.277858e-02
7.550760e+01 1.316802e-02
7.672890e+01 1.356647e-02
7.796990e+01 1.378817e-02
7.923100e+01 1.401349e-02
8.051250e+01 1.424250e-02
8.181470e+01 1.447527e-02
8.313800e+01 1.471181e-02
8.448270e+01 1.495225e-02
8.584910e+01 1.519658e-02
8.723770e+01 1.544494e-02
8.864870e+01 1.569735e-02
9.008250e+01 1.595387e-02
9.153950e+01 1.618152e-02
9.302010e+01 1.640140e-02
9.452460e+01 1.662430e-02
9.605350e+01 1.685019e-02
9.760710e+01 1.707919e-02
9.918580e+01 1.731127e-02
1.007900e+02 1.754652e-02
1.024200e+02 1.778493e-02
1.040770e+02 1.804443e-02
1.057600e+02 1.836927e-02
1.074710e+02 1.870011e-02
1.092090e+02 1.903678e-02
1.109750e+02 1.937948e-02
1.127700e+02 1.972847e-02
1.145940e+02 2.008372e-02
1.164480e+02 2.044543e-02
1.183310e+02 2.081347e-02
1.202450e+02 2.118829e-02
1.221900e+02 2.156983e-02
1.241660e+02 2.195816e-02
1.261750e+02 2.235366e-02
1.282150e+02 2.272915e-02
1.302890e+02 2.306742e-02
1.323970e+02 2.353791e-02
1.345380e+02 2.401800e-02
1.367140e+02 2.450792e-02
1.389250e+02 2.500774e-02
1.411720e+02 2.551769e-02
1.434560e+02 2.603809e-02
1.457760e+02 2.656902e-02
1.481340e+02 2.711104e-02
1.505300e+02 2.766422e-02
1.529640e+02 2.822792e-02
1.554390e+02 2.880362e-02
1.579530e+02 2.939100e-02
1.605070e+02 3.003550e-02
1.631030e+02 3.071528e-02
1.657420e+02 3.143860e-02
1.684220e+02 3.217899e-02
1.711460e+02 3.293695e-02
1.739150e+02 3.371294e-02
1.767270e+02 3.450654e-02
1.795860e+02 3.531908e-02
1.824910e+02 3.615070e-02
1.854420e+02 3.700195e-02
1.884420e+02 3.788291e-02
1.914890e+02 3.880470e-02
1.945870e+02 3.980207e-02
1.977340e+02 4.082435e-02
2.009320e+02 4.187259e-02
2.041820e+02 4.294857e-02
2.074850e+02 4.405759e-02
2.108400e+02 4.520179e-02
2.142510e+02 4.642669e-02
2.177160e+02 4.768712e-02
2.212370e+02 4.898168e-02
2.248160e+02 5.031026e-02
2.284520e+02 5.167526e-02
2.321470e+02 5.307826e-02
2.359020e+02 5.451880e-02
2.397170e+02 5.602108e-02
2.435950e+02 5.759418e-02
2.475350e+02 5.923445e-02
2.515380e+02 6.092399e-02
2.556070e+02 6.266173e-02
2.597410e+02 6.444991e-02
2.639420e+02 6.628924e-02
2.682110e+02 6.818136e-02
2.725490e+02 7.018504e-02
2.769570e+02 7.226626e-02
2.814370e+02 7.441634e-02
2.859890e+02 7.663299e-02
2.906150e+02 7.891604e-02
2.953150e+02 8.126598e-02
3.000920e+02 8.370814e-02
3.049450e+02 8.624423e-02
3.098780e+02 8.888366e-02
3.148900e+02 9.160720e-02
3.199830e+02 9.441331e-02
3.251580e+02 9.730202e-02
3.304180e+02 1.003171e-01
3.357620e+02 1.034437e-01
3.411920e+02 1.066901e-01
3.467110e+02 1.100419e-01
3.523190e+02 1.134996e-01
3.580170e+02 1.170658e-01
3.638080e+02 1.207993e-01
3.696920e+02 1.246658e-01
3.756720e+02 1.286631e-01
3.817480e+02 1.327882e-01
3.879220e+02 1.370599e-01
3.941970e+02 1.415032e-01
4.005730e+02 1.461149e-01
4.070520e+02 1.508874e-01
4.136350e+02 1.558151e-01
4.203260e+02 1.609435e-01
4.271240e+02 1.662574e-01
4.340320e+02 1.717818e-01
4.410520e+02 1.774919e-01
4.481860e+02 1.834007e-01
4.554350e+02 1.895493e-01
4.628020e+02 1.959177e-01
4.702870e+02 2.025071e-01
4.778940e+02 2.093203e-01
4.856230e+02 2.164733e-01
4.934780e+02 2.239151e-01
5.014590e+02 2.316118e-01
5.095700e+02 2.395730e-01
5.178120e+02 2.477960e-01
5.261870e+02 2.562559e-01
5.346980e+02 2.649126e-01
5.433460e+02 2.738137e-01
5.521340e+02 2.830088e-01
5.610650e+02 2.927745e-01
5.701390e+02 3.029812e-01
5.793610e+02 3.133691e-01
5.887320e+02 3.240573e-01
5.982540e+02 3.350745e-01
6.079300e+02 3.464724e-01
6.177630e+02 3.582527e-01
6.277550e+02 3.704501e-01
6.379080e+02 3.833538e-01
6.482260e+02 3.971532e-01
6.587110e+02 4.117549e-01
6.693650e+02 4.268867e-01
6.801910e+02 4.415941e-01
6.911930e+02 4.560274e-01
7.023720e+02 4.707593e-01
7.137330e+02 4.868362e-01
7.252770e+02 5.040887e-01
7.370080e+02 5.219641e-01
7.489280e+02 5.404717e-01
7.610420e+02 5.596392e-01
7.733510e+02 5.794821e-01
7.780000e+02 5.870751e-01
7.782000e+02 7.308485e-02
7.858590e+02 7.464570e-02
7.985700e+02 7.727434e-02
8.114860e+02 7.999501e-02
8.246110e+02 8.281200e-02
8.379490e+02 8.572881e-02
8.515020e+02 8.874302e-02
8.652740e+02 9.200455e-02
8.792690e+02 9.551998e-02
8.934910e+02 9.925778e-02
9.079430e+02 1.011267e-01
9.226280e+02 1.008367e-01
9.375510e+02 1.005479e-01
9.527150e+02 1.024709e-01
9.681240e+02 1.066722e-01
9.837830e+02 1.110427e-01
9.996950e+02 1.155660e-01
1.015860e+03 1.202429e-01
1.032290e+03 1.248232e-01
1.048990e+03 1.296276e-01
1.065960e+03 1.346775e-01
1.083200e+03 1.399215e-01
1.100720e+03 1.453709e-01
1.118520e+03 1.510301e-01
1.136610e+03 1.569129e-01
1.155000e+03 1.630244e-01
1.173680e+03 1.693725e-01
1.192660e+03 1.759683e-01
1.211950e+03 1.828222e-01
1.231550e+03 1.899413e-01
1.251470e+03 1.973954e-01
1.271720e+03 2.052121e-01
1.292290e+03 2.134251e-01
1.313190e+03 2.219630e-01
1.334430e+03 2.308433e-01
1.356010e+03 2.400801e-01
1.377940e+03 2.496859e-01
1.400230e+03 2.596766e-01
1.422880e+03 2.700665e-01
1.445890e+03 2.808727e-01
1.469280e+03 2.921376e-01
1.493040e+03 3.038925e-01
1.517190e+03 3.163104e-01
1.541730e+03 3.292645e-01
1.566670e+03 3.427536e-01
1.592010e+03 3.567893e-01
1.617760e+03 3.714000e-01
1.643920e+03 3.866063e-01
1.670510e+03 4.024326e-01
1.697530e+03 4.189092e-01
1.724990e+03 4.360659e-01
1.752890e+03 4.543304e-01
1.781240e+03 4.735019e-01
1.810050e+03 4.935928e-01
1.839320e+03 5.145322e-01
1.869070e+03 5.363658e-01
1.899300e+03 5.591316e-01
1.930020e+03 5.828633e-01
1.961240e+03 6.075977e-01
1.992960e+03 6.333656e-01
2.025200e+03 6.599276e-01
2.057950e+03 6.883006e-01
2.091240e+03 7.179525e-01
2.125060e+03 7.490029e-01
2.159430e+03 7.814543e-01
2.194360e+03 8.153352e-01
2.229850e+03 8.507885e-01
2.265920e+03 8.878722e-01
2.302570e+03 9.266315e-01
2.339810e+03 9.671791e-01
2.377660e+03 1.009543e+00
2.416110e+03 1.053890e+00
2.455190e+03 1.100170e+00
2.494900e+03 1.148645e+00
2.535260e+03 1.199313e+00
2.576260e+03 1.252277e+00
2.617930e+03 1.307663e+00
2.660270e+03 1.365588e+00
2.703300e+03 1.426146e+00
2.747030e+03 1.489490e+00
2.791460e+03 1.555709e+00
2.836610e+03 1.624949e+00
2.882490e+03 1.697365e+00
2.929110e+03 1.773074e+00
2.976480e+03 1.852252e+00
3.024630e+03 1.935063e+00
3.073550e+03 2.021627e+00
3.123260e+03 2.112170e+00
3.173780e+03 2.206844e+00
3.225110e+03 2.305809e+00
3.277270e+03 2.409295e+00
3.330280e+03 2.517529e+00
3.384150e+03 2.630718e+00
3.438880e+03 2.749056e+00
3.494500e+03 2.872735e+00
3.551020e+03 3.002101e+00
3.608460e+03 3.137368e+00
3.666820e+03 3.278761e+00
3.726130e+03 3.426640e+00
3.786400e+03 3.581250e+00
3.847640e+03 3.742882e+00
3.909870e+03 3.911878e+00
3.973110e+03 4.088597e+00
4.037380e+03 4.273280e+00
4.102680e+03 4.466348e+00
4.169030e+03 4.668181e+00
4.236460e+03 4.879157e+00
4.304980e+03 5.099643e+00
4.374620e+03 5.330325e+00
4.445370e+03 5.571185e+00
4.517270e+03 5.823199e+00
4.590330e+03 6.086253e+00
4.664580e+03 6.361531e+00
4.740030e+03 6.649123e+00
4.816690e+03 6.949575e+00
4.894600e+03 7.263717e+00
4.973770e+03 7.591995e+00
5.054210e+03 7.934596e+00
5.135960e+03 8.293092e+00
5.219030e+03 8.667489e+00
5.303440e+03 9.058563e+00
5.389220e+03 9.467058e+00
5.476390e+03 9.893869e+00
5.564970e+03 1.033997e+01
5.654980e+03 1.080567e+01
5.746440e+03 1.129285e+01
5.839390e+03 1.180073e+01
5.933830e+03 1.233141e+01
6.029810e+03 1.288573e+01
6.127330e+03 1.346452e+01
6.226440e+03 1.406888e+01
6.327150e+03 1.469983e+01
6.429480e+03 1.535869e+01
6.533480e+03 1.604639e+01
6.639150e+03 1.676434e+01
6.746540e+03 1.751369e+01
6.855650e+03 1.829576e+01
6.966540e+03 1.911198e+01
7.079220e+03 1.996382e+01
7.193720e+03 2.085270e+01
7.310070e+03 2.178015e+01
7.428310e+03 2.274736e+01
7.548450e+03 2.375658e+01
7.670540e+03 2.480991e+01
7.708800e+03 2.514593e+01
7.709000e+03 3.197378e+00
7.794610e+03 3.285353e+00
7.920680e+03 3.417497e+00
8.048790e+03 3.555741e+00
8.178980e+03 3.700395e+00
8.311260e+03 3.851748e+00
8.445690e+03 4.009931e+00
8.582290e+03 4.175577e+00
8.721110e+03 4.348789e+00
8.862160e+03 4.530061e+00
9.005500e+03 4.719636e+00
9.151160e+03 4.917900e+00
9.299170e+03 5.125487e+00
9.449580e+03 5.342640e+00
9.602420e+03 5.569839e+00
9.757730e+03 5.807749e+00
9.915550e+03 6.056332e+00
1.007590e+04 6.316681e+00
1.023890e+04 6.589130e+00
1.040450e+04 6.874275e+00
1.057280e+04 7.172703e+00
1.074380e+04 7.485007e+00
1.091760e+04 7.811912e+00
1.109420e+04 8.154068e+00
1.127360e+04 8.512189e+00
1.145590e+04 8.887058e+00
1.164120e+04 9.279487e+00
1.182950e+04 9.690340e+00
1.202080e+04 1.012043e+01
1.221530e+04 1.057080e+01
1.241280e+04 1.104218e+01
1.261360e+04 1.153586e+01
1.281760e+04 1.205272e+01
1.302500e+04 1.259400e+01
1.323560e+04 1.316064e+01
1.344970e+04 1.375412e+01
1.366720e+04 1.437564e+01
1.388830e+04 1.502655e+01
1.411290e+04 1.570816e+01
1.434120e+04 1.642214e+01
1.457310e+04 1.716985e+01
1.480890e+04 1.795322e+01
1.504840e+04 1.877367e+01
1.529180e+04 1.963300e+01
1.553910e+04 2.053335e+01
1.579040e+04 2.147642e+01
1.604580e+04 2.246434e+01
1.630540e+04 2.349954e+01
1.656910e+04 2.458412e+01
1.683710e+04 2.572022e+01
1.710940e+04 2.691076e+01
1.738610e+04 2.815813e+01
1.766740e+04 2.946538e+01
1.795310e+04 3.083496e+01
1.824350e+04 3.227033e+01
1.853860e+04 3.377446e+01
1.883840e+04 3.535068e+01
1.914310e+04 3.700261e+01
1.945270e+04 3.873392e+01
1.976740e+04 4.054862e+01
2.008710e+04 4.245044e+01
2.041200e+04 4.444393e+01
2.074210e+04 4.653335e+01
2.107760e+04 4.872365e+01
2.141850e+04 5.101950e+01
2.176500e+04 5.342646e+01
2.211700e+04 5.594939e+01
2.247470e+04 5.859426e+01
2.283820e+04 6.136718e+01
2.320760e+04 6.427433e+01
2.358300e+04 6.732239e+01
2.396440e+04 7.051791e+01
2.435200e+04 7.386861e+01
2.474590e+04 7.738181e+01
2.514620e+04 8.106579e+01
2.555290e+04 8.492848e+01
2.596620e+04 8.897910e+01
2.638610e+04 9.322649e+01
2.681290e+04 9.768082e+01
2.724660e+04 1.023522e+02
2.768730e+04 1.072511e+02
2.813510e+04 1.123890e+02
2.859020e+04 1.177774e+02
2.905260e+04 1.234289e+02
2.952250e+04 1.293563e+02
3.000000e+04 1.355735e+02
