# material=Dy density=8.551
# Photon Energy [eV]  Attenuation Length [um]
1.000000e+01 2.888507e-01
1.016170e+01 2.831023e-01
1.032610e+01 2.774703e-01
1.049310e+01 2.719496e-01
1.066280e+01 2.665382e-01
1.083530e+01 2.612358e-01
1.101060e+01 2.560388e-01
1.118860e+01 2.509430e-01
1.136960e+01 2.459513e-01
1.155350e+01 2.409522e-01
1.174040e+01 2.355903e-01
1.193030e+01 2.303478e-01
1.212320e+01 2.252203e-01
1.231930e+01 2.202087e-01
1.251860e+01 2.153086e-01
1.272100e+01 2.105652e-01
1.292680e+01 2.063494e-01
1.313590e+01 2.022178e-01
1.334830e+01 1.981676e-01
1.356420e+01 1.941991e-01
1.378360e+01 1.903108e-01
1.400660e+01 1.867308e-01
1.423310e+01 1.833359e-01
1.446330e+01 1.800035e-01
1.469730e+01 1.767322e-01
1.493500e+01 1.735194e-01
1.517650e+01 1.703645e-01
1.542200e+01 1.676213e-01
1.567140e+01 1.662316e-01
1.592490e+01 1.648541e-01
1.618250e+01 1.634880e-01
1.644420e+01 1.621327e-01
1.671020e+01 1.607893e-01
1.698050e+01 1.594569e-01
1.725510e+01 1.565856e-01
1.753420e+01 1.536500e-01
1.781780e+01 1.507689e-01
1.810600e+01 1.488373e-01
1.839890e+01 1.471283e-01
1.869640e+01 1.454378e-01
1.899880e+01 1.437675e-01
1.930610e+01 1.421163e-01
1.961840e+01 1.404843e-01
1.993570e+01 1.381679e-01
2.025820e+01 1.356085e-01
2.058580e+01 1.330958e-01
2.091880e+01 1.296499e-01
2.125710e+01 1.236821e-01
2.160090e+01 1.179890e-01
2.195030e+01 1.125582e-01
2.230530e+01 1.073772e-01
2.266610e+01 1.001457e-01
2.303270e+01 9.094101e-02
2.340530e+01 8.258201e-02
2.378380e+01 7.499128e-02
2.416850e+01 6.809867e-02
2.455940e+01 6.183924e-02
2.495660e+01 5.615507e-02
2.536030e+01 5.075562e-02
2.577050e+01 4.328489e-02
2.618730e+01 3.691364e-02
2.661090e+01 3.148032e-02
2.704130e+01 2.684665e-02
2.747860e+01 2.289496e-02
2.792310e+01 1.980941e-02
2.837470e+01 1.722337e-02
2.883370e+01 1.497498e-02
2.930000e+01 1.302002e-02
2.977390e+01 1.156625e-02
3.025550e+01 1.092302e-02
3.074490e+01 1.031562e-02
3.124210e+01 9.921973e-03
3.174750e+01 9.690302e-03
3.226090e+01 9.531097e-03
3.278270e+01 9.411457e-03
3.331300e+01 9.372677e-03
3.385180e+01 9.399133e-03
3.439930e+01 9.426944e-03
3.495570e+01 9.471824e-03
3.552110e+01 9.516934e-03
3.609560e+01 9.628698e-03
3.667940e+01 9.964598e-03
3.727270e+01 1.031225e-02
3.787550e+01 1.070342e-02
3.848820e+01 1.115745e-02
3.911070e+01 1.163072e-02
3.974320e+01 1.212403e-02
4.038610e+01 1.263842e-02
4.103930e+01 1.317450e-02
4.170310e+01 1.373328e-02
4.237760e+01 1.431587e-02
4.306300e+01 1.492315e-02
4.375950e+01 1.555618e-02
4.446730e+01 1.621602e-02
4.518650e+01 1.690390e-02
4.591740e+01 1.762091e-02
4.666000e+01 1.836837e-02
4.741470e+01 1.901792e-02
4.818160e+01 1.961099e-02
4.896090e+01 2.022254e-02
4.975280e+01 2.085325e-02
5.055760e+01 2.150351e-02
5.137530e+01 2.217416e-02
5.220620e+01 2.286562e-02
5.305060e+01 2.357870e-02
5.390870e+01 2.431400e-02
5.478060e+01 2.507230e-02
5.566670e+01 2.585426e-02
5.656700e+01 2.666048e-02
5.748200e+01 2.728904e-02
5.841170e+01 2.776125e-02
5.935640e+01 2.824159e-02
6.031650e+01 2.873034e-02
6.129210e+01 2.922754e-02
6.228340e+01 2.973324e-02
6.329080e+01 3.024780e-02
6.431450e+01 3.077124e-02
6.535470e+01 3.128446e-02
6.641180e+01 3.172619e-02
6.748590e+01 3.217413e-02
6.857750e+01 3.262842e-02
6.968670e+01 3.308909e-02
7.081380e+01 3.355624e-02
7.195910e+01 3.401334e-02
7.312300e+01 3.436326e-02
7.430570e+01 3.471675e-02
7.550760e+01 3.507389e-02
7.672890e+01 3.543472e-02
7.796990e+01 3.579935e-02
7.923100e+01 3.617989e-02
8.051250e+01 3.656446e-02
8.181470e+01 3.695314e-02
8.313800e+01 3.734600e-02
8.448270e+01 3.774318e-02
8.584910e+01 3.814570e-02
8.723770e+01 3.855294e-02
8.864870e+01 3.896450e-02
9.008250e+01 3.938007e-02
9.153950e+01 3.980240e-02
9.302010e+01 4.024007e-02
9.452460e+01 4.068242e-02
9.605350e+01 4.112956e-02
9.760710e+01 4.158190e-02
9.918580e+01 4.203871e-02
1.007900e+02 4.243112e-02
1.024200e+02 4.282232e-02
1.040770e+02 4.339419e-02
1.057600e+02 4.401180e-02
1.074710e+02 4.463868e-02
1.092090e+02 4.527437e-02
1.109750e+02 4.620244e-02
1.127700e+02 4.743605e-02
1.145940e+02 4.870230e-02
1.164480e+02 5.000223e-02
1.183310e+02 5.140166e-02
1.202450e+02 5.306092e-02
1.221900e+02 5.477393e-02
1.241660e+02 5.654187e-02
1.261750e+02 5.836743e-02
1.282150e+02 6.025126e-02
1.302890e+02 6.219628e-02
1.323970e+02 6.420431e-02
1.345380e+02 6.654573e-02
1.367140e+02 6.963947e-02
1.389250e+02 7.307175e-02
1.411720e+02 8.039752e-02
1.434560e+02 9.003341e-02
1.457760e+02 9.926519e-02
1.481340e+02 1.050698e-01
1.505300e+02 6.406610e-02
1.529640e+02 1.606106e-02
1.554390e+02 1.657301e-02
1.579530e+02 1.847189e-02
1.605070e+02 2.119894e-02
1.631030e+02 2.452974e-02
1.657420e+02 2.981929e-02
1.684220e+02 3.157497e-02
1.711460e+02 3.275104e-02
1.739150e+02 3.397116e-02
1.767270e+02 3.523629e-02
1.795860e+02 3.654892e-02
1.824910e+02 3.791031e-02
1.854420e+02 3.932230e-02
1.884420e+02 4.078712e-02
1.914890e+02 4.208235e-02
1.945870e+02 4.320385e-02
1.977340e+02 4.435507e-02
2.009320e+02 4.553679e-02
2.041820e+02 4.675029e-02
2.074850e+02 4.799616e-02
2.108400e+02 4.927477e-02
2.142510e+02 5.058795e-02
2.177160e+02 5.205189e-02
2.212370e+02 5.358848e-02
2.248160e+02 5.517091e-02
2.284520e+02 5.679965e-02
2.321470e+02 5.847650e-02
2.359020e+02 6.020310e-02
2.397170e+02 6.198018e-02
2.435950e+02 6.381034e-02
2.475350e+02 6.569410e-02
2.515380e+02 6.737693e-02
2.556070e+02 6.849935e-02
2.597410e+02 6.964068e-02
2.639420e+02 7.080109e-02
2.682110e+02 7.198043e-02
2.725490e+02 7.317985e-02
2.769570e+02 7.439924e-02
2.814370e+02 7.563870e-02
2.859890e+02 7.689870e-02
2.906150e+02 7.811141e-02
2.953150e+02 7.917958e-02
3.000920e+02 8.026262e-02
3.049450e+02 8.136016e-02
3.098780e+02 8.247312e-02
3.148900e+02 8.360110e-02
3.199830e+02 8.474451e-02
3.251580e+02 8.590347e-02
3.304180e+02 8.707865e-02
3.357620e+02 8.826963e-02
3.411920e+02 8.947681e-02
3.467110e+02 9.070084e-02
3.523190e+02 9.194156e-02
3.580170e+02 9.319909e-02
3.638080e+02 9.465477e-02
3.696920e+02 9.622280e-02
3.756720e+02 9.781647e-02
3.817480e+02 9.943636e-02
3.879220e+02 1.010830e-01
3.941970e+02 1.027579e-01
4.005730e+02 1.044597e-01
4.070520e+02 1.061898e-01
4.136350e+02 1.079483e-01
4.203260e+02 1.097363e-01
4.271240e+02 1.118304e-01
4.340320e+02 1.143485e-01
4.410520e+02 1.169237e-01
4.481860e+02 1.195568e-01
4.554350e+02 1.222494e-01
4.628020e+02 1.250026e-01
4.702870e+02 1.278170e-01
4.778940e+02 1.306954e-01
4.856230e+02 1.336387e-01
4.934780e+02 1.366488e-01
5.014590e+02 1.397259e-01
5.095700e+02 1.428727e-01
5.178120e+02 1.460897e-01
5.261870e+02 1.493792e-01
5.346980e+02 1.527441e-01
5.433460e+02 1.562135e-01
5.521340e+02 1.597633e-01
5.610650e+02 1.633934e-01
5.701390e+02 1.671059e-01
5.793610e+02 1.709037e-01
5.887320e+02 1.747868e-01
5.982540e+02 1.791021e-01
6.079300e+02 1.839943e-01
6.177630e+02 1.890225e-01
6.277550e+02 1.941863e-01
6.379080e+02 1.994914e-01
6.482260e+02 2.049420e-01
6.587110e+02 2.105416e-01
6.693650e+02 2.162952e-01
6.801910e+02 2.222038e-01
6.911930e+02 2.282748e-01
7.023720e+02 2.345119e-01
7.137330e+02 2.409200e-01
7.252770e+02 2.475009e-01
7.370080e+02 2.542631e-01
7.489280e+02 2.612110e-01
7.610420e+02 2.683480e-01
7.733510e+02 2.756801e-01
7.858590e+02 2.832105e-01
7.985700e+02 2.917328e-01
8.114860e+02 3.002819e-01
8.246110e+02 3.090819e-01
8.379490e+02 3.181424e-01
8.515020e+02 3.275229e-01
8.652740e+02 3.372495e-01
8.792690e+02 3.473296e-01
8.934910e+02 3.577098e-01
9.079430e+02 3.684010e-01
9.226280e+02 3.794184e-01
9.375510e+02 3.909668e-01
9.527150e+02 4.029271e-01
9.681240e+02 4.153091e-01
9.837830e+02 4.280773e-01
9.996950e+02 4.412682e-01
1.015860e+03 4.548994e-01
1.032290e+03 4.693068e-01
1.048990e+03 4.842797e-01
1.065960e+03 4.998483e-01
1.083200e+03 5.159067e-01
1.100720e+03 5.324793e-01
1.118520e+03 5.495811e-01
1.136610e+03 5.672419e-01
1.155000e+03 5.854719e-01
1.173680e+03 6.042807e-01
1.192660e+03 6.236954e-01
1.211950e+03 6.437306e-01
1.231550e+03 6.644031e-01
1.251470e+03 6.856834e-01
1.271720e+03 7.076450e-01
1.292290e+03 7.303069e-01
1.292500e+03 7.305426e-01
1.292700e+03 1.465894e-01
1.313190e+03 1.523463e-01
1.334430e+03 1.584531e-01
1.356010e+03 1.648045e-01
1.377940e+03 1.714126e-01
1.400230e+03 1.782862e-01
1.422880e+03 1.854337e-01
1.445890e+03 1.928683e-01
1.469280e+03 2.005993e-01
1.493040e+03 2.086343e-01
1.517190e+03 2.169752e-01
1.541730e+03 2.256459e-01
1.566670e+03 2.346639e-01
1.592010e+03 2.440428e-01
1.617760e+03 2.537965e-01
1.643920e+03 2.639392e-01
1.670510e+03 2.744890e-01
1.675500e+03 2.764961e-01
1.675700e+03 2.370154e-01
1.697530e+03 2.441902e-01
1.724990e+03 2.533874e-01
1.752890e+03 2.629336e-01
1.781240e+03 2.728382e-01
1.810050e+03 2.831116e-01
1.839320e+03 2.937711e-01
1.841700e+03 2.946462e-01
1.841900e+03 2.765809e-01
1.869070e+03 2.864712e-01
1.899300e+03 2.977136e-01
1.930020e+03 3.093976e-01
1.961240e+03 3.215407e-01
1.992960e+03 3.341618e-01
2.025200e+03 3.471909e-01
2.046700e+03 3.560412e-01
2.046900e+03 3.415864e-01
2.057950e+03 3.458317e-01
2.091240e+03 3.587985e-01
2.125060e+03 3.723143e-01
2.159430e+03 3.863887e-01
2.194360e+03 4.010624e-01
2.229850e+03 4.163600e-01
2.265920e+03 4.322965e-01
2.302570e+03 4.489035e-01
2.339810e+03 4.661984e-01
2.377660e+03 4.842297e-01
2.416110e+03 5.030122e-01
2.455190e+03 5.225771e-01
2.494900e+03 5.429777e-01
2.535260e+03 5.642258e-01
2.576260e+03 5.863535e-01
2.617930e+03 6.094221e-01
2.660270e+03 6.334595e-01
2.703300e+03 6.585039e-01
2.747030e+03 6.845915e-01
2.791460e+03 7.117599e-01
2.836610e+03 7.400610e-01
2.882490e+03 7.695745e-01
2.929110e+03 8.002836e-01
2.976480e+03 8.323101e-01
3.024630e+03 8.656602e-01
3.073550e+03 9.004563e-01
3.123260e+03 9.366578e-01
3.173780e+03 9.743515e-01
3.225110e+03 1.013642e+00
3.277270e+03 1.054646e+00
3.330280e+03 1.097281e+00
3.384150e+03 1.141703e+00
3.438880e+03 1.187998e+00
3.494500e+03 1.236226e+00
3.551020e+03 1.286463e+00
3.608460e+03 1.338805e+00
3.666820e+03 1.393334e+00
3.726130e+03 1.450133e+00
3.786400e+03 1.509318e+00
3.847640e+03 1.570975e+00
3.909870e+03 1.635206e+00
3.973110e+03 1.702102e+00
4.037380e+03 1.771807e+00
4.102680e+03 1.844412e+00
4.169030e+03 1.920075e+00
4.236460e+03 1.998877e+00
4.304980e+03 2.080950e+00
4.374620e+03 2.166497e+00
4.445370e+03 2.255593e+00
4.517270e+03 2.348384e+00
4.590330e+03 2.445051e+00
4.664580e+03 2.545780e+00
4.740030e+03 2.650729e+00
4.816690e+03 2.760026e+00
4.894600e+03 2.873895e+00
4.973770e+03 2.992551e+00
5.054210e+03 3.116113e+00
5.135960e+03 3.244854e+00
5.219030e+03 3.379004e+00
5.303440e+03 3.518768e+00
5.389220e+03 3.664316e+00
5.476390e+03 3.815959e+00
5.564970e+03 3.974005e+00
5.654980e+03 4.138539e+00
5.746440e+03 4.310053e+00
5.839390e+03 4.488709e+00
5.933830e+03 4.674823e+00
6.029810e+03 4.868710e+00
6.127330e+03 5.070826e+00
6.226440e+03 5.281374e+00
6.327150e+03 5.500706e+00
6.429480e+03 5.729156e+00
6.533480e+03 5.967408e+00
6.639150e+03 6.215449e+00
6.746540e+03 6.474152e+00
6.855650e+03 6.743488e+00
6.966540e+03 7.024130e+00
7.079220e+03 7.316747e+00
7.193720e+03 7.621625e+00
7.310070e+03 7.939391e+00
7.428310e+03 8.270287e+00
7.548450e+03 8.615575e+00
7.670540e+03 8.975323e+00
7.790000e+03 9.336002e+00
7.790200e+03 3.338409e+00
7.794610e+03 3.343790e+00
7.920680e+03 3.499836e+00
8.048790e+03 3.663198e+00
8.178980e+03 3.834144e+00
8.311260e+03 4.013052e+00
8.445690e+03 4.200366e+00
8.580500e+03 4.393821e+00
8.580700e+03 3.153698e+00
8.582290e+03 3.155387e+00
8.721110e+03 3.303128e+00
8.862160e+03 3.457789e+00
9.005500e+03 3.619767e+00
9.045700e+03 3.666075e+00
9.045900e+03 3.188493e+00
9.151160e+03 3.282159e+00
9.299170e+03 3.416593e+00
9.449580e+03 3.557051e+00
9.602420e+03 3.703804e+00
9.757730e+03 3.857138e+00
9.915550e+03 4.017169e+00
1.007590e+04 4.184504e+00
1.023890e+04 4.359314e+00
1.040450e+04 4.541923e+00
1.057280e+04 4.732736e+00
1.074380e+04 4.932065e+00
1.091760e+04 5.140349e+00
1.109420e+04 5.357961e+00
1.127360e+04 5.585296e+00
1.145590e+04 5.822823e+00
1.164120e+04 6.071030e+00
1.182950e+04 6.330379e+00
1.202080e+04 6.601338e+00
1.221530e+04 6.884534e+00
1.241280e+04 7.180353e+00
1.261360e+04 7.489538e+00
1.281760e+04 7.812571e+00
1.302500e+04 8.150211e+00
1.323560e+04 8.502930e+00
1.344970e+04 8.871576e+00
1.366720e+04 9.256773e+00
1.388830e+04 9.659361e+00
1.411290e+04 1.008004e+01
1.434120e+04 1.051970e+01
1.457310e+04 1.097911e+01
1.480890e+04 1.145932e+01
1.504840e+04 1.196112e+01
1.529180e+04 1.248553e+01
1.553910e+04 1.303358e+01
1.579040e+04 1.360634e+01
1.604580e+04 1.420498e+01
1.630540e+04 1.483070e+01
1.656910e+04 1.548459e+01
1.683710e+04 1.616803e+01
1.710940e+04 1.688225e+01
1.738610e+04 1.762877e+01
1.766740e+04 1.840913e+01
1.795310e+04 1.922460e+01
1.824350e+04 2.007698e+01
1.853860e+04 2.096794e+01
1.883840e+04 2.189903e+01
1.914310e+04 2.287231e+01
1.945270e+04 2.388950e+01
1.976740e+04 2.495291e+01
2.008710e+04 2.606419e+01
2.041200e+04 2.722587e+01
2.074210e+04 2.843994e+01
2.107760e+04 2.970914e+01
2.141850e+04 3.103568e+01
2.176500e+04 3.242244e+01
2.211700e+04 3.387169e+01
2.247470e+04 3.538660e+01
2.283820e+04 3.697012e+01
2.320760e+04 3.862548e+01
2.358300e+04 4.035576e+01
2.396440e+04 4.216436e+01
2.435200e+04 4.405483e+01
2.474590e+04 4.603110e+01
2.514620e+04 4.809692e+01
2.555290e+04 5.025622e+01
2.596620e+04 5.251330e+01
2.638610e+04 5.487276e+01
2.681290e+04 5.733932e+01
2.724660e+04 5.991753e+01
2.768730e+04 6.261297e+01
2.813510e+04 6.543032e+01
2.859020e+04 6.837599e+01
2.905260e+04 7.145488e+01
2.952250e+04 7.467371e+01
3.000000e+04 7.803851e+01
