# material=Er density=9.066
# Photon Energy [eV]  Attenuation Length [um]
1.000000e+01 2.391502e-01
1.016170e+01 2.391828e-01
1.032610e+01 2.392175e-01
1.049310e+01 2.392494e-01
1.066280e+01 2.392834e-01
1.083530e+01 2.393167e-01
1.101060e+01 2.393517e-01
1.118860e+01 2.365315e-01
1.136960e+01 2.329445e-01
1.155350e+01 2.294125e-01
1.174040e+01 2.259332e-01
1.193030e+01 2.225078e-01
1.212320e+01 2.191318e-01
1.231930e+01 2.156706e-01
1.251860e+01 2.122432e-01
1.272100e+01 2.088681e-01
1.292680e+01 2.055493e-01
1.313590e+01 2.022823e-01
1.334830e+01 1.990660e-01
1.356420e+01 1.959135e-01
1.378360e+01 1.934091e-01
1.400660e+01 1.909375e-01
1.423310e+01 1.884954e-01
1.446330e+01 1.860854e-01
1.469730e+01 1.837071e-01
1.493500e+01 1.812674e-01
1.517650e+01 1.787628e-01
1.542200e+01 1.762943e-01
1.567140e+01 1.738588e-01
1.592490e+01 1.714578e-01
1.618250e+01 1.690898e-01
1.644420e+01 1.667539e-01
1.671020e+01 1.644469e-01
1.698050e+01 1.621236e-01
1.725510e+01 1.598327e-01
1.753420e+01 1.575743e-01
1.781780e+01 1.553481e-01
1.810600e+01 1.531532e-01
1.839890e+01 1.509896e-01
1.869640e+01 1.488556e-01
1.899880e+01 1.472089e-01
1.930610e+01 1.456787e-01
1.961840e+01 1.441647e-01
1.993570e+01 1.426659e-01
2.025820e+01 1.411831e-01
2.058580e+01 1.394763e-01
2.091880e+01 1.372175e-01
2.125710e+01 1.349944e-01
2.160090e+01 1.328078e-01
2.195030e+01 1.306567e-01
2.230530e+01 1.285401e-01
2.266610e+01 1.229313e-01
2.303270e+01 1.165434e-01
2.340530e+01 1.104878e-01
2.378380e+01 1.025189e-01
2.416850e+01 9.434067e-02
2.455940e+01 8.577652e-02
2.495660e+01 7.486748e-02
2.536030e+01 6.037224e-02
2.577050e+01 4.093570e-02
2.618730e+01 2.236502e-02
2.661090e+01 1.679706e-02
2.704130e+01 1.504588e-02
2.747860e+01 1.363922e-02
2.792310e+01 1.244668e-02
2.837470e+01 1.137293e-02
2.883370e+01 1.083973e-02
2.930000e+01 1.047699e-02
2.977390e+01 1.000085e-02
3.025550e+01 9.765341e-03
3.074490e+01 9.765921e-03
3.124210e+01 9.905697e-03
3.174750e+01 1.005206e-02
3.226090e+01 1.020054e-02
3.278270e+01 1.035119e-02
3.331300e+01 1.051508e-02
3.385180e+01 1.113647e-02
3.439930e+01 1.171660e-02
3.495570e+01 1.215880e-02
3.552110e+01 1.261396e-02
3.609560e+01 1.298318e-02
3.667940e+01 1.336309e-02
3.727270e+01 1.371015e-02
3.787550e+01 1.405213e-02
3.848820e+01 1.441497e-02
3.911070e+01 1.488966e-02
3.974320e+01 1.537980e-02
4.038610e+01 1.588617e-02
4.103930e+01 1.629457e-02
4.170310e+01 1.669832e-02
4.237760e+01 1.716562e-02
4.306300e+01 1.784571e-02
4.375950e+01 1.855259e-02
4.446730e+01 1.921596e-02
4.518650e+01 1.959609e-02
4.591740e+01 1.998383e-02
4.666000e+01 2.037904e-02
4.741470e+01 2.079537e-02
4.818160e+01 2.127783e-02
4.896090e+01 2.177143e-02
4.975280e+01 2.227653e-02
5.055760e+01 2.279337e-02
5.137530e+01 2.332213e-02
5.220620e+01 2.386319e-02
5.305060e+01 2.441679e-02
5.390870e+01 2.495372e-02
5.478060e+01 2.538707e-02
5.566670e+01 2.582796e-02
5.656700e+01 2.627643e-02
5.748200e+01 2.673279e-02
5.841170e+01 2.719701e-02
5.935640e+01 2.768244e-02
6.031650e+01 2.817841e-02
6.129210e+01 2.868321e-02
6.228340e+01 2.919704e-02
6.329080e+01 2.972007e-02
6.431450e+01 3.025253e-02
6.535470e+01 3.076357e-02
6.641180e+01 3.118586e-02
6.748590e+01 3.161392e-02
6.857750e+01 3.204789e-02
6.968670e+01 3.248781e-02
7.081380e+01 3.293374e-02
7.195910e+01 3.338578e-02
7.312300e+01 3.368902e-02
7.430570e+01 3.398783e-02
7.550760e+01 3.428931e-02
7.672890e+01 3.459343e-02
7.796990e+01 3.490024e-02
7.923100e+01 3.520978e-02
8.051250e+01 3.552205e-02
8.181470e+01 3.583695e-02
8.313800e+01 3.615507e-02
8.448270e+01 3.654375e-02
8.584910e+01 3.713333e-02
8.723770e+01 3.773210e-02
8.864870e+01 3.834049e-02
9.008250e+01 3.895869e-02
9.153950e+01 3.958686e-02
9.302010e+01 4.022556e-02
9.452460e+01 4.087415e-02
9.605350e+01 4.137856e-02
9.760710e+01 4.171379e-02
9.918580e+01 4.205152e-02
1.007900e+02 4.239222e-02
1.024200e+02 4.273546e-02
1.040770e+02 4.308203e-02
1.057600e+02 4.343097e-02
1.074710e+02 4.378296e-02
1.092090e+02 4.409114e-02
1.109750e+02 4.428903e-02
1.127700e+02 4.448785e-02
1.145940e+02 4.468710e-02
1.164480e+02 4.489456e-02
1.183310e+02 4.525046e-02
1.202450e+02 4.560963e-02
1.221900e+02 4.597192e-02
1.241660e+02 4.633641e-02
1.261750e+02 4.670449e-02
1.282150e+02 4.707488e-02
1.302890e+02 4.744894e-02
1.323970e+02 4.782572e-02
1.345380e+02 4.820512e-02
1.367140e+02 4.948709e-02
1.389250e+02 5.094356e-02
1.411720e+02 5.244302e-02
1.434560e+02 5.410383e-02
1.457760e+02 5.700147e-02
1.481340e+02 6.005415e-02
1.505300e+02 6.327095e-02
1.529640e+02 7.180255e-02
1.554390e+02 8.546490e-02
1.579530e+02 9.279171e-02
1.605070e+02 3.805790e-02
1.631030e+02 1.723284e-02
1.657420e+02 2.698796e-02
1.684220e+02 3.114088e-02
1.711460e+02 3.470626e-02
1.739150e+02 3.595970e-02
1.767270e+02 3.717277e-02
1.795860e+02 3.842713e-02
1.824910e+02 3.934774e-02
1.854420e+02 4.020349e-02
1.884420e+02 4.107814e-02
1.914890e+02 4.197127e-02
1.945870e+02 4.288442e-02
1.977340e+02 4.381696e-02
2.009320e+02 4.477001e-02
2.041820e+02 4.554970e-02
2.074850e+02 4.633889e-02
2.108400e+02 4.714150e-02
2.142510e+02 4.795821e-02
2.177160e+02 4.878887e-02
2.212370e+02 4.963398e-02
2.248160e+02 5.049402e-02
2.284520e+02 5.136856e-02
2.321470e+02 5.225837e-02
2.359020e+02 5.316370e-02
2.397170e+02 5.408463e-02
2.435950e+02 5.502811e-02
2.475350e+02 5.603682e-02
2.515380e+02 5.706382e-02
2.556070e+02 5.811020e-02
2.597410e+02 5.917522e-02
2.639420e+02 6.026007e-02
2.682110e+02 6.136478e-02
2.725490e+02 6.248968e-02
2.769570e+02 6.363512e-02
2.814370e+02 6.458865e-02
2.859890e+02 6.531263e-02
2.906150e+02 6.604433e-02
2.953150e+02 6.678426e-02
3.000920e+02 6.753259e-02
3.049450e+02 6.828926e-02
3.098780e+02 6.905428e-02
3.148900e+02 6.982832e-02
3.199830e+02 7.061057e-02
3.251580e+02 7.148197e-02
3.304180e+02 7.285239e-02
3.357620e+02 7.424873e-02
3.411920e+02 7.567162e-02
3.467110e+02 7.712233e-02
3.523190e+02 7.860067e-02
3.580170e+02 8.010707e-02
3.638080e+02 8.164282e-02
3.696920e+02 8.320773e-02
3.756720e+02 8.480269e-02
3.817480e+02 8.632004e-02
3.879220e+02 8.780938e-02
3.941970e+02 8.932479e-02
4.005730e+02 9.086586e-02
4.070520e+02 9.243407e-02
4.136350e+02 9.402879e-02
4.203260e+02 9.565148e-02
4.271240e+02 9.730200e-02
4.340320e+02 9.898062e-02
4.410520e+02 1.006884e-01
4.481860e+02 1.024258e-01
4.554350e+02 1.041932e-01
4.628020e+02 1.059915e-01
4.702870e+02 1.078200e-01
4.778940e+02 1.098426e-01
4.856230e+02 1.122577e-01
4.934780e+02 1.147261e-01
5.014590e+02 1.172487e-01
5.095700e+02 1.198264e-01
5.178120e+02 1.224614e-01
5.261870e+02 1.251543e-01
5.346980e+02 1.279059e-01
5.433460e+02 1.307178e-01
5.521340e+02 1.335922e-01
5.610650e+02 1.365299e-01
5.701390e+02 1.399584e-01
5.793610e+02 1.435087e-01
5.887320e+02 1.471643e-01
5.982540e+02 1.509222e-01
6.079300e+02 1.547765e-01
6.177630e+02 1.587290e-01
6.277550e+02 1.627942e-01
6.379080e+02 1.671145e-01
6.482260e+02 1.717801e-01
6.587110e+02 1.767325e-01
6.693650e+02 1.818275e-01
6.801910e+02 1.867457e-01
6.911930e+02 1.915427e-01
7.023720e+02 1.964122e-01
7.137330e+02 2.017420e-01
7.252770e+02 2.074539e-01
7.370080e+02 2.133243e-01
7.489280e+02 2.193610e-01
7.610420e+02 2.255736e-01
7.733510e+02 2.319918e-01
7.858590e+02 2.387084e-01
7.985700e+02 2.457189e-01
8.114860e+02 2.529346e-01
8.246110e+02 2.603630e-01
8.379490e+02 2.680119e-01
8.515020e+02 2.759237e-01
8.652740e+02 2.841202e-01
8.792690e+02 2.926032e-01
8.934910e+02 3.013364e-01
9.079430e+02 3.103332e-01
9.226280e+02 3.196007e-01
9.375510e+02 3.293896e-01
9.527150e+02 3.395496e-01
9.681240e+02 3.500872e-01
9.837830e+02 3.609417e-01
9.996950e+02 3.721803e-01
1.015860e+03 3.838174e-01
1.032290e+03 3.962606e-01
1.048990e+03 4.091917e-01
1.065960e+03 4.226364e-01
1.083200e+03 4.365183e-01
1.100720e+03 4.508558e-01
1.118520e+03 4.656688e-01
1.136610e+03 4.809644e-01
1.155000e+03 4.967629e-01
1.173680e+03 5.130821e-01
1.192660e+03 5.299384e-01
1.211950e+03 5.473475e-01
1.231550e+03 5.653277e-01
1.251470e+03 5.838770e-01
1.271720e+03 6.030072e-01
1.292290e+03 6.227203e-01
1.313190e+03 6.430928e-01
1.334430e+03 6.641240e-01
1.356010e+03 6.858272e-01
1.377940e+03 7.082569e-01
1.400230e+03 7.314248e-01
1.409200e+03 7.408539e-01
1.409400e+03 1.522383e-01
1.422880e+03 1.558134e-01
1.445890e+03 1.620305e-01
1.469280e+03 1.684955e-01
1.493040e+03 1.752149e-01
1.517190e+03 1.821858e-01
1.541730e+03 1.894317e-01
1.566670e+03 1.969662e-01
1.592010e+03 2.047986e-01
1.617760e+03 2.129440e-01
1.643920e+03 2.214143e-01
1.670510e+03 2.302216e-01
1.697530e+03 2.393766e-01
1.724990e+03 2.488943e-01
1.752890e+03 2.587915e-01
1.781240e+03 2.690824e-01
1.810050e+03 2.797827e-01
1.811700e+03 2.804036e-01
1.811900e+03 2.400727e-01
1.839320e+03 2.491597e-01
1.869070e+03 2.592461e-01
1.899300e+03 2.697396e-01
1.930020e+03 2.806583e-01
1.961240e+03 2.920179e-01
1.992960e+03 3.038370e-01
2.005700e+03 3.086612e-01
2.005900e+03 2.884767e-01
2.025200e+03 2.952581e-01
2.057950e+03 3.069784e-01
2.091240e+03 3.191666e-01
2.125060e+03 3.318380e-01
2.159430e+03 3.450068e-01
2.194360e+03 3.587076e-01
2.206400e+03 3.635030e-01
2.206600e+03 3.480355e-01
2.229850e+03 3.566215e-01
2.265920e+03 3.701763e-01
2.302570e+03 3.842871e-01
2.339810e+03 3.989864e-01
2.377660e+03 4.142851e-01
2.416110e+03 4.302228e-01
2.455190e+03 4.468085e-01
2.494900e+03 4.640929e-01
2.535260e+03 4.820936e-01
2.576260e+03 5.008249e-01
2.617930e+03 5.203393e-01
2.660270e+03 5.406672e-01
2.703300e+03 5.618226e-01
2.747030e+03 5.838638e-01
2.791460e+03 6.067977e-01
2.836610e+03 6.306806e-01
2.882490e+03 6.555795e-01
2.929110e+03 6.814902e-01
2.976480e+03 7.084443e-01
3.024630e+03 7.365633e-01
3.073550e+03 7.658275e-01
3.123260e+03 7.962653e-01
3.173780e+03 8.280150e-01
3.225110e+03 8.610462e-01
3.277270e+03 8.954699e-01
3.330280e+03 9.312838e-01
3.384150e+03 9.686141e-01
3.438880e+03 1.007484e+00
3.494500e+03 1.047916e+00
3.551020e+03 1.090074e+00
3.608460e+03 1.134020e+00
3.666820e+03 1.179751e+00
3.726130e+03 1.227377e+00
3.786400e+03 1.276981e+00
3.847640e+03 1.328644e+00
3.909870e+03 1.382439e+00
3.973110e+03 1.438488e+00
4.037380e+03 1.496876e+00
4.102680e+03 1.557693e+00
4.169030e+03 1.621041e+00
4.236460e+03 1.687013e+00
4.304980e+03 1.755745e+00
4.374620e+03 1.827376e+00
4.445370e+03 1.901961e+00
4.517270e+03 1.979690e+00
4.590330e+03 2.060641e+00
4.664580e+03 2.145013e+00
4.740030e+03 2.232922e+00
4.816690e+03 2.324492e+00
4.894600e+03 2.419939e+00
4.973770e+03 2.519355e+00
5.054210e+03 2.622975e+00
5.135960e+03 2.730946e+00
5.219030e+03 2.843525e+00
5.303440e+03 2.960789e+00
5.389220e+03 3.083053e+00
5.476390e+03 3.210454e+00
5.564970e+03 3.343248e+00
5.654980e+03 3.481672e+00
5.746440e+03 3.626045e+00
5.839390e+03 3.776512e+00
5.933830e+03 3.933390e+00
6.029810e+03 4.097016e+00
6.127330e+03 4.267522e+00
6.226440e+03 4.445467e+00
6.327150e+03 4.630921e+00
6.429480e+03 4.824453e+00
6.533480e+03 5.026202e+00
6.639150e+03 5.236772e+00
6.746540e+03 5.456388e+00
6.855650e+03 5.685585e+00
6.966540e+03 5.924585e+00
7.079220e+03 6.174250e+00
7.193720e+03 6.434684e+00
7.310070e+03 6.706650e+00
7.428310e+03 6.990180e+00
7.548450e+03 7.286449e+00
7.670540e+03 7.595566e+00
7.794610e+03 7.918629e+00
7.920680e+03 8.256033e+00
8.048790e+03 8.608370e+00
8.178980e+03 8.976443e+00
8.311260e+03 9.361015e+00
8.357800e+03 9.498670e+00
8.358000e+03 3.409460e+00
8.445690e+03 3.513057e+00
8.582290e+03 3.678485e+00
8.721110e+03 3.851704e+00
8.862160e+03 4.033058e+00
9.005500e+03 4.223096e+00
9.151160e+03 4.421979e+00
9.264200e+03 4.580447e+00
9.264400e+03 3.279458e+00
9.299170e+03 3.315133e+00
9.449580e+03 3.472434e+00
9.602420e+03 3.637062e+00
9.751200e+03 3.802140e+00
9.751400e+03 3.310197e+00
9.757730e+03 3.318049e+00
9.915550e+03 3.518620e+00
1.007590e+04 3.656706e+00
1.023890e+04 3.801035e+00
1.040450e+04 3.951890e+00
1.057280e+04 4.109593e+00
1.074380e+04 4.274399e+00
1.091760e+04 4.446683e+00
1.109420e+04 4.626799e+00
1.127360e+04 4.815024e+00
1.145590e+04 5.011721e+00
1.164120e+04 5.217406e+00
1.182950e+04 5.432391e+00
1.202080e+04 5.657083e+00
1.221530e+04 5.892019e+00
1.241280e+04 6.137524e+00
1.261360e+04 6.394226e+00
1.281760e+04 6.662536e+00
1.302500e+04 6.943084e+00
1.323560e+04 7.236282e+00
1.344970e+04 7.542852e+00
1.366720e+04 7.863315e+00
1.388830e+04 8.198392e+00
1.411290e+04 8.548656e+00
1.434120e+04 8.914907e+00
1.457310e+04 9.297768e+00
1.480890e+04 9.698153e+00
1.504840e+04 1.011672e+01
1.529180e+04 1.055436e+01
1.553910e+04 1.101194e+01
1.579040e+04 1.149040e+01
1.604580e+04 1.199070e+01
1.630540e+04 1.251389e+01
1.656910e+04 1.306089e+01
1.683710e+04 1.363293e+01
1.710940e+04 1.423106e+01
1.738610e+04 1.485651e+01
1.766740e+04 1.551072e+01
1.795310e+04 1.619467e+01
1.824350e+04 1.691000e+01
1.853860e+04 1.765806e+01
1.883840e+04 1.844032e+01
1.914310e+04 1.925838e+01
1.945270e+04 2.011391e+01
1.976740e+04 2.100871e+01
2.008710e+04 2.194444e+01
2.041200e+04 2.292301e+01
2.074210e+04 2.394642e+01
2.107760e+04 2.501674e+01
2.141850e+04 2.613612e+01
2.176500e+04 2.730688e+01
2.211700e+04 2.853117e+01
2.247470e+04 2.981163e+01
2.283820e+04 3.115078e+01
2.320760e+04 3.255127e+01
2.358300e+04 3.401610e+01
2.396440e+04 3.554792e+01
2.435200e+04 3.714991e+01
2.474590e+04 3.882551e+01
2.514620e+04 4.057782e+01
2.555290e+04 4.241028e+01
2.596620e+04 4.432657e+01
2.638610e+04 4.633069e+01
2.681290e+04 4.842668e+01
2.724660e+04 5.061856e+01
2.768730e+04 5.291077e+01
2.813510e+04 5.530772e+01
2.859020e+04 5.781448e+01
2.905260e+04 6.043571e+01
2.952250e+04 6.317668e+01
3.000000e+04 6.604303e+01
