# material=Ga density=5.904
# Photon Energy [eV]  Attenuation Length [um]
1.000000e+01 9.400849e-03
1.016170e+01 9.565229e-03
1.032610e+01 9.732547e-03
1.049310e+01 9.902785e-03
1.066280e+01 1.007595e-02
1.083530e+01 1.025221e-02
1.101060e+01 1.045003e-02
1.118860e+01 1.079553e-02
1.136960e+01 1.115253e-02
1.155350e+01 1.152130e-02
1.174040e+01 1.190231e-02
1.193030e+01 1.255692e-02
1.212320e+01 1.332163e-02
1.231930e+01 1.413299e-02
1.251860e+01 1.499387e-02
1.272100e+01 1.590696e-02
1.292680e+01 1.687586e-02
1.313590e+01 1.823513e-02
1.334830e+01 1.977260e-02
1.356420e+01 2.229354e-02
1.378360e+01 2.673042e-02
1.400660e+01 3.167208e-02
1.423310e+01 3.729343e-02
1.446330e+01 4.408367e-02
1.469730e+01 5.333147e-02
1.493500e+01 6.439582e-02
1.517650e+01 7.106248e-02
1.542200e+01 7.841947e-02
1.567140e+01 8.653798e-02
1.592490e+01 9.453011e-02
1.618250e+01 1.032232e-01
1.644420e+01 1.063466e-01
1.671020e+01 1.084954e-01
1.698050e+01 1.106816e-01
1.725510e+01 1.093647e-01
1.753420e+01 1.080637e-01
1.781780e+01 1.067782e-01
1.810600e+01 1.039901e-01
1.839890e+01 9.641580e-02
1.869640e+01 8.939246e-02
1.899880e+01 7.938014e-02
1.930610e+01 6.840196e-02
1.961840e+01 6.037419e-02
1.993570e+01 5.576979e-02
2.025820e+01 5.151620e-02
2.058580e+01 4.862893e-02
2.091880e+01 4.689219e-02
2.125710e+01 4.521729e-02
2.160090e+01 4.493534e-02
2.195030e+01 4.532287e-02
2.230530e+01 4.571381e-02
2.266610e+01 4.610812e-02
2.303270e+01 4.650565e-02
2.340530e+01 4.727498e-02
2.378380e+01 4.836671e-02
2.416850e+01 4.948358e-02
2.455940e+01 5.062594e-02
2.495660e+01 5.125947e-02
2.536030e+01 5.098050e-02
2.577050e+01 5.070319e-02
2.618730e+01 5.042694e-02
2.661090e+01 5.015246e-02
2.704130e+01 4.987933e-02
2.747860e+01 4.943311e-02
2.792310e+01 4.857498e-02
2.837470e+01 4.773180e-02
2.883370e+01 4.690310e-02
2.930000e+01 4.608894e-02
2.977390e+01 4.528872e-02
3.025550e+01 4.450264e-02
3.074490e+01 4.373018e-02
3.124210e+01 4.297080e-02
3.174750e+01 4.221798e-02
3.226090e+01 4.146806e-02
3.278270e+01 4.073156e-02
3.331300e+01 4.000815e-02
3.385180e+01 3.929759e-02
3.439930e+01 3.859963e-02
3.495570e+01 3.791419e-02
3.552110e+01 3.724071e-02
3.609560e+01 3.657926e-02
3.667940e+01 3.592964e-02
3.727270e+01 3.529154e-02
3.787550e+01 3.466469e-02
3.848820e+01 3.425685e-02
3.911070e+01 3.389157e-02
3.974320e+01 3.353002e-02
4.038610e+01 3.317260e-02
4.103930e+01 3.281880e-02
4.170310e+01 3.246884e-02
4.237760e+01 3.212260e-02
4.306300e+01 3.178007e-02
4.375950e+01 3.144116e-02
4.446730e+01 3.110588e-02
4.518650e+01 3.077417e-02
4.591740e+01 3.048928e-02
4.666000e+01 3.031594e-02
4.741470e+01 3.014373e-02
4.818160e+01 2.997247e-02
4.896090e+01 2.980220e-02
4.975280e+01 2.963283e-02
5.055760e+01 2.946458e-02
5.137530e+01 2.929714e-02
5.220620e+01 2.913068e-02
5.305060e+01 2.896512e-02
5.390870e+01 2.880059e-02
5.478060e+01 2.866254e-02
5.566670e+01 2.852974e-02
5.656700e+01 2.839751e-02
5.748200e+01 2.826593e-02
5.841170e+01 2.813493e-02
5.935640e+01 2.800453e-02
6.031650e+01 2.787478e-02
6.129210e+01 2.774557e-02
6.228340e+01 2.761698e-02
6.329080e+01 2.748902e-02
6.431450e+01 2.745938e-02
6.535470e+01 2.745506e-02
6.641180e+01 2.745076e-02
6.748590e+01 2.744646e-02
6.857750e+01 2.744218e-02
6.968670e+01 2.743792e-02
7.081380e+01 2.743361e-02
7.195910e+01 2.742933e-02
7.312300e+01 2.743165e-02
7.430570e+01 2.751104e-02
7.550760e+01 2.759073e-02
7.672890e+01 2.767059e-02
7.796990e+01 2.775069e-02
7.923100e+01 2.783101e-02
8.051250e+01 2.791157e-02
8.181470e+01 2.799236e-02
8.313800e+01 2.807339e-02
8.448270e+01 2.811089e-02
8.584910e+01 2.813151e-02
8.723770e+01 2.815220e-02
8.864870e+01 2.817289e-02
9.008250e+01 2.819355e-02
9.153950e+01 2.821427e-02
9.302010e+01 2.823496e-02
9.452460e+01 2.824639e-02
9.605350e+01 2.822826e-02
9.760710e+01 2.818976e-02
9.918580e+01 2.815129e-02
1.007900e+02 2.811288e-02
1.024200e+02 2.807449e-02
1.040770e+02 2.803633e-02
1.057600e+02 2.799789e-02
1.074710e+02 2.796001e-02
1.092090e+02 2.792166e-02
1.109750e+02 2.788342e-02
1.127700e+02 2.784554e-02
1.145940e+02 2.800030e-02
1.164480e+02 2.817100e-02
1.183310e+02 2.834263e-02
1.202450e+02 2.851536e-02
1.221900e+02 2.868933e-02
1.241660e+02 2.886398e-02
1.261750e+02 2.904017e-02
1.282150e+02 2.921689e-02
1.302890e+02 2.939497e-02
1.323970e+02 2.957432e-02
1.345380e+02 2.975463e-02
1.367140e+02 2.993580e-02
1.389250e+02 3.011820e-02
1.411720e+02 3.046086e-02
1.434560e+02 3.089335e-02
1.457760e+02 3.133165e-02
1.481340e+02 3.177640e-02
1.505300e+02 3.222731e-02
1.529640e+02 3.268458e-02
1.554390e+02 3.314856e-02
1.579530e+02 3.361904e-02
1.605070e+02 3.409592e-02
1.631030e+02 3.457985e-02
1.657420e+02 3.507073e-02
1.684220e+02 3.556835e-02
1.711460e+02 3.607304e-02
1.739150e+02 3.658524e-02
1.767270e+02 3.710418e-02
1.795860e+02 3.764726e-02
1.824910e+02 3.830661e-02
1.854420e+02 3.897736e-02
1.884420e+02 3.965990e-02
1.914890e+02 4.035414e-02
1.945870e+02 4.106097e-02
1.977340e+02 4.177970e-02
2.009320e+02 4.251142e-02
2.041820e+02 4.325577e-02
2.074850e+02 4.401332e-02
2.108400e+02 4.478391e-02
2.142510e+02 4.556809e-02
2.177160e+02 4.636619e-02
2.212370e+02 4.717798e-02
2.248160e+02 4.800429e-02
2.284520e+02 4.884460e-02
2.321470e+02 4.969974e-02
2.359020e+02 5.057038e-02
2.397170e+02 5.145581e-02
2.435950e+02 5.235671e-02
2.475350e+02 5.327372e-02
2.515380e+02 5.435993e-02
2.556070e+02 5.560754e-02
2.597410e+02 5.688303e-02
2.639420e+02 5.818810e-02
2.682110e+02 5.952294e-02
2.725490e+02 6.088867e-02
2.769570e+02 6.228547e-02
2.814370e+02 6.371472e-02
2.859890e+02 6.517639e-02
2.906150e+02 6.667190e-02
2.953150e+02 6.820176e-02
3.000920e+02 6.976658e-02
3.049450e+02 7.136661e-02
3.098780e+02 7.300447e-02
3.148900e+02 7.509110e-02
3.199830e+02 7.737533e-02
3.251580e+02 7.972930e-02
3.304180e+02 8.215535e-02
3.357620e+02 8.465411e-02
3.411920e+02 8.723000e-02
3.467110e+02 8.988317e-02
3.523190e+02 9.261780e-02
3.580170e+02 9.543517e-02
3.638080e+02 9.833886e-02
3.696920e+02 1.013308e-01
3.756720e+02 1.044140e-01
3.817480e+02 1.075901e-01
3.879220e+02 1.108631e-01
3.941970e+02 1.142468e-01
4.005730e+02 1.180822e-01
4.070520e+02 1.220465e-01
4.136350e+02 1.261433e-01
4.203260e+02 1.303783e-01
4.271240e+02 1.347550e-01
4.340320e+02 1.392787e-01
4.410520e+02 1.439545e-01
4.481860e+02 1.487873e-01
4.554350e+02 1.537822e-01
4.628020e+02 1.589450e-01
4.702870e+02 1.642808e-01
4.778940e+02 1.697959e-01
4.856230e+02 1.754959e-01
4.934780e+02 1.813877e-01
5.014590e+02 1.874765e-01
5.095700e+02 1.937705e-01
5.178120e+02 2.002753e-01
5.261870e+02 2.069986e-01
5.346980e+02 2.145979e-01
5.433460e+02 2.225198e-01
5.521340e+02 2.307337e-01
5.610650e+02 2.392512e-01
5.701390e+02 2.480828e-01
5.793610e+02 2.572410e-01
5.887320e+02 2.667369e-01
5.982540e+02 2.765830e-01
6.079300e+02 2.867929e-01
6.177630e+02 2.973798e-01
6.277550e+02 3.083570e-01
6.379080e+02 3.197398e-01
6.482260e+02 3.315430e-01
6.587110e+02 3.437819e-01
6.693650e+02 3.564726e-01
6.801910e+02 3.720858e-01
6.911930e+02 3.895893e-01
7.023720e+02 4.079156e-01
7.137330e+02 4.271043e-01
7.252770e+02 4.471962e-01
7.370080e+02 4.682330e-01
7.489280e+02 4.902596e-01
7.610420e+02 5.133219e-01
7.733510e+02 5.374691e-01
7.858590e+02 5.627516e-01
7.985700e+02 5.892238e-01
8.114860e+02 6.169417e-01
8.246110e+02 6.414366e-01
8.379490e+02 6.660000e-01
8.515020e+02 6.915910e-01
8.652740e+02 7.183099e-01
8.792690e+02 7.461979e-01
8.934910e+02 7.751302e-01
9.079430e+02 8.052008e-01
9.226280e+02 8.364545e-01
9.375510e+02 8.688021e-01
9.527150e+02 9.023889e-01
9.681240e+02 9.372607e-01
9.837830e+02 9.734660e-01
9.996950e+02 1.010893e+00
1.015860e+03 1.049559e+00
1.032290e+03 1.088028e+00
1.048990e+03 1.128088e+00
1.065960e+03 1.169837e+00
1.083200e+03 1.213146e+00
1.100720e+03 1.258066e+00
1.116600e+03 1.299573e+00
1.116800e+03 2.005654e-01
1.118520e+03 2.010712e-01
1.136610e+03 2.064175e-01
1.155000e+03 2.119089e-01
1.173680e+03 2.175434e-01
1.192660e+03 2.233284e-01
1.211950e+03 2.292672e-01
1.231550e+03 2.353643e-01
1.251470e+03 2.416030e-01
1.271720e+03 2.480066e-01
1.292290e+03 2.545797e-01
1.298900e+03 2.567054e-01
1.299100e+03 2.295095e-01
1.313190e+03 2.356887e-01
1.334430e+03 2.451881e-01
1.356010e+03 2.550717e-01
1.377940e+03 2.653506e-01
1.400230e+03 2.760473e-01
1.422880e+03 2.871738e-01
1.445890e+03 2.987510e-01
1.469280e+03 3.107917e-01
1.493040e+03 3.233110e-01
1.517190e+03 3.363074e-01
1.541730e+03 3.498263e-01
1.566670e+03 3.638881e-01
1.592010e+03 3.785140e-01
1.617760e+03 3.937260e-01
1.643920e+03 4.095473e-01
1.670510e+03 4.260079e-01
1.697530e+03 4.431303e-01
1.724990e+03 4.609402e-01
1.752890e+03 4.798357e-01
1.781240e+03 4.996287e-01
1.810050e+03 5.203433e-01
1.839320e+03 5.419189e-01
1.869070e+03 5.643935e-01
1.899300e+03 5.878023e-01
1.930020e+03 6.121724e-01
1.961240e+03 6.375528e-01
1.992960e+03 6.639881e-01
2.025200e+03 6.912091e-01
2.057950e+03 7.201807e-01
2.091240e+03 7.504758e-01
2.125060e+03 7.820689e-01
2.159430e+03 8.150622e-01
2.194360e+03 8.495487e-01
2.229850e+03 8.855205e-01
2.265920e+03 9.231062e-01
2.302570e+03 9.623285e-01
2.339810e+03 1.003302e+00
2.377660e+03 1.046103e+00
2.416110e+03 1.090751e+00
2.455190e+03 1.137411e+00
2.494900e+03 1.186096e+00
2.535260e+03 1.236969e+00
2.576260e+03 1.290105e+00
2.617930e+03 1.345563e+00
2.660270e+03 1.403478e+00
2.703300e+03 1.464002e+00
2.747030e+03 1.527208e+00
2.791460e+03 1.593136e+00
2.836610e+03 1.662153e+00
2.882490e+03 1.734063e+00
2.929110e+03 1.809231e+00
2.976480e+03 1.887732e+00
3.024630e+03 1.969727e+00
3.073550e+03 2.055352e+00
3.123260e+03 2.144796e+00
3.173780e+03 2.238223e+00
3.225110e+03 2.335777e+00
3.277270e+03 2.437703e+00
3.330280e+03 2.544166e+00
3.384150e+03 2.655355e+00
3.438880e+03 2.771510e+00
3.494500e+03 2.892841e+00
3.551020e+03 3.019588e+00
3.608460e+03 3.151990e+00
3.666820e+03 3.290304e+00
3.726130e+03 3.434731e+00
3.786400e+03 3.585722e+00
3.847640e+03 3.743407e+00
3.909870e+03 3.908111e+00
3.973110e+03 4.080199e+00
4.037380e+03 4.260031e+00
4.102680e+03 4.447900e+00
4.169030e+03 4.644238e+00
4.236460e+03 4.849363e+00
4.304980e+03 5.063570e+00
4.374620e+03 5.287579e+00
4.445370e+03 5.521607e+00
4.517270e+03 5.766052e+00
4.590330e+03 6.021584e+00
4.664580e+03 6.288713e+00
4.740030e+03 6.567816e+00
4.816690e+03 6.859529e+00
4.894600e+03 7.164367e+00
4.973770e+03 7.483045e+00
5.054210e+03 7.816176e+00
5.135960e+03 8.164354e+00
5.219030e+03 8.528280e+00
5.303440e+03 8.909142e+00
5.389220e+03 9.306832e+00
5.476390e+03 9.723080e+00
5.564970e+03 1.015777e+01
5.654980e+03 1.061281e+01
5.746440e+03 1.108809e+01
5.839390e+03 1.158568e+01
5.933830e+03 1.210572e+01
6.029810e+03 1.264996e+01
6.127330e+03 1.321868e+01
6.226440e+03 1.381393e+01
6.327150e+03 1.443681e+01
6.429480e+03 1.508838e+01
6.533480e+03 1.577080e+01
6.639150e+03 1.648441e+01
6.746540e+03 1.723095e+01
6.855650e+03 1.801255e+01
6.966540e+03 1.883067e+01
7.079220e+03 1.968723e+01
7.193720e+03 2.058401e+01
7.310070e+03 2.152279e+01
7.428310e+03 2.250610e+01
7.548450e+03 2.353595e+01
7.670540e+03 2.461470e+01
7.794610e+03 2.574460e+01
7.920680e+03 2.692887e+01
8.048790e+03 2.816984e+01
8.178980e+03 2.947055e+01
8.311260e+03 3.083380e+01
8.445690e+03 3.226243e+01
8.582290e+03 3.376190e+01
8.721110e+03 3.533401e+01
8.862160e+03 3.698281e+01
9.005500e+03 3.871296e+01
9.151160e+03 4.052809e+01
9.299170e+03 4.243394e+01
9.449580e+03 4.443542e+01
9.602420e+03 4.653664e+01
9.757730e+03 4.874223e+01
9.915550e+03 5.105960e+01
1.007590e+04 5.349600e+01
1.023890e+04 5.605730e+01
1.036700e+04 5.812608e+01
1.036720e+04 7.547625e+00
1.040450e+04 7.615219e+00
1.057280e+04 7.924552e+00
1.074380e+04 8.248115e+00
1.091760e+04 8.586555e+00
1.109420e+04 8.940577e+00
1.127360e+04 9.310863e+00
1.145590e+04 9.698171e+00
1.164120e+04 1.010337e+01
1.182950e+04 1.052728e+01
1.202080e+04 1.097071e+01
1.221530e+04 1.143470e+01
1.241280e+04 1.191996e+01
1.261360e+04 1.242777e+01
1.281760e+04 1.295907e+01
1.302500e+04 1.351504e+01
1.323560e+04 1.409663e+01
1.344970e+04 1.470527e+01
1.366720e+04 1.534217e+01
1.388830e+04 1.600864e+01
1.411290e+04 1.670612e+01
1.434120e+04 1.743603e+01
1.457310e+04 1.819988e+01
1.480890e+04 1.899955e+01
1.504840e+04 1.983633e+01
1.529180e+04 2.071228e+01
1.553910e+04 2.162900e+01
1.579040e+04 2.258870e+01
1.604580e+04 2.359339e+01
1.630540e+04 2.464513e+01
1.656910e+04 2.574617e+01
1.683710e+04 2.689879e+01
1.710940e+04 2.810563e+01
1.738610e+04 2.936900e+01
1.766740e+04 3.069214e+01
1.795310e+04 3.207744e+01
1.824350e+04 3.352806e+01
1.853860e+04 3.504696e+01
1.883840e+04 3.663746e+01
1.914310e+04 3.830322e+01
1.945270e+04 4.004768e+01
1.976740e+04 4.187453e+01
2.008710e+04 4.378793e+01
2.041200e+04 4.579234e+01
2.074210e+04 4.789119e+01
2.107760e+04 5.009004e+01
2.141850e+04 5.239310e+01
2.176500e+04 5.480566e+01
2.211700e+04 5.733250e+01
2.247470e+04 5.997999e+01
2.283820e+04 6.275350e+01
2.320760e+04 6.565886e+01
2.358300e+04 6.870312e+01
2.396440e+04 7.189228e+01
2.435200e+04 7.523388e+01
2.474590e+04 7.873505e+01
2.514620e+04 8.240383e+01
2.555290e+04 8.624779e+01
2.596620e+04 9.027583e+01
2.638610e+04 9.449643e+01
2.681290e+04 9.891983e+01
2.724660e+04 1.035552e+02
2.768730e+04 1.084130e+02
2.813510e+04 1.135041e+02
2.859020e+04 1.188398e+02
2.905260e+04 1.244318e+02
2.952250e+04 1.302930e+02
3.000000e+04 1.364362e+02
