# material=I density=4.94
# Photon Energy [eV]  Attenuation Length [um]
1.000000e+01 7.809936e-03
1.016170e+01 8.197229e-03
1.032610e+01 8.603793e-03
1.049310e+01 9.046734e-03
1.066280e+01 9.526164e-03
1.083530e+01 9.749978e-03
1.101060e+01 9.872025e-03
1.118860e+01 9.391021e-03
1.136960e+01 8.821970e-03
1.155350e+01 8.270742e-03
1.174040e+01 7.753976e-03
1.193030e+01 7.276507e-03
1.212320e+01 6.859348e-03
1.231930e+01 6.798476e-03
1.251860e+01 6.738213e-03
1.272100e+01 6.797114e-03
1.292680e+01 6.939024e-03
1.313590e+01 7.083907e-03
1.334830e+01 7.231797e-03
1.356420e+01 7.387183e-03
1.378360e+01 7.570152e-03
1.400660e+01 7.757672e-03
1.423310e+01 7.949692e-03
1.446330e+01 8.146615e-03
1.469730e+01 8.348358e-03
1.493500e+01 8.555096e-03
1.517650e+01 8.859781e-03
1.542200e+01 9.238812e-03
1.567140e+01 9.633964e-03
1.592490e+01 1.004610e-02
1.618250e+01 1.047585e-02
1.644420e+01 1.092395e-02
1.671020e+01 1.139125e-02
1.698050e+01 1.187855e-02
1.725510e+01 1.238664e-02
1.753420e+01 1.291650e-02
1.781780e+01 1.346903e-02
1.810600e+01 1.404519e-02
1.839890e+01 1.464604e-02
1.869640e+01 1.537881e-02
1.899880e+01 1.622606e-02
1.930610e+01 1.712000e-02
1.961840e+01 1.806323e-02
1.993570e+01 1.905834e-02
2.025820e+01 2.010837e-02
2.058580e+01 2.121609e-02
2.091880e+01 2.238498e-02
2.125710e+01 2.361816e-02
2.160090e+01 2.491931e-02
2.195030e+01 2.629218e-02
2.230530e+01 2.774067e-02
2.266610e+01 2.950869e-02
2.303270e+01 3.166126e-02
2.340530e+01 3.397086e-02
2.378380e+01 3.644887e-02
2.416850e+01 3.910763e-02
2.455940e+01 4.196042e-02
2.495660e+01 4.502120e-02
2.536030e+01 4.830543e-02
2.577050e+01 5.182909e-02
2.618730e+01 5.560976e-02
2.661090e+01 5.966652e-02
2.704130e+01 6.401884e-02
2.747860e+01 6.868855e-02
2.792310e+01 7.369919e-02
2.837470e+01 7.897693e-02
2.883370e+01 8.454308e-02
2.930000e+01 9.050086e-02
2.977390e+01 9.687905e-02
3.025550e+01 1.037072e-01
3.074490e+01 1.110159e-01
3.124210e+01 1.186000e-01
3.174750e+01 1.264521e-01
3.226090e+01 1.348244e-01
3.278270e+01 1.437510e-01
3.331300e+01 1.532685e-01
3.385180e+01 1.634153e-01
3.439930e+01 1.742353e-01
3.495570e+01 1.859121e-01
3.552110e+01 1.987343e-01
3.609560e+01 2.124386e-01
3.667940e+01 2.270901e-01
3.727270e+01 2.427512e-01
3.787550e+01 2.558465e-01
3.848820e+01 2.676418e-01
3.911070e+01 2.799797e-01
3.974320e+01 2.928862e-01
4.038610e+01 3.063886e-01
4.103930e+01 3.107417e-01
4.170310e+01 3.142726e-01
4.237760e+01 3.178439e-01
4.306300e+01 3.192649e-01
4.375950e+01 3.151029e-01
4.446730e+01 3.109948e-01
4.518650e+01 3.055317e-01
4.591740e+01 2.868140e-01
4.666000e+01 2.163360e-01
4.741470e+01 1.446316e-01
4.818160e+01 9.669317e-02
4.896090e+01 6.464451e-02
4.975280e+01 4.321770e-02
5.055760e+01 6.386634e-02
5.137530e+01 1.112313e-01
5.220620e+01 1.937223e-01
5.305060e+01 2.405095e-01
5.390870e+01 2.415104e-01
5.478060e+01 2.325313e-01
5.566670e+01 1.760240e-01
5.656700e+01 1.332481e-01
5.748200e+01 1.405445e-01
5.841170e+01 1.585337e-01
5.935640e+01 1.652869e-01
6.031650e+01 1.422395e-01
6.129210e+01 1.224052e-01
6.228340e+01 1.053372e-01
6.329080e+01 9.064951e-02
6.431450e+01 7.800923e-02
6.535470e+01 6.793964e-02
6.641180e+01 5.972838e-02
6.748590e+01 5.250937e-02
6.857750e+01 4.616306e-02
6.968670e+01 4.058372e-02
7.081380e+01 3.659527e-02
7.195910e+01 3.413992e-02
7.312300e+01 3.184937e-02
7.430570e+01 2.971251e-02
7.550760e+01 2.787352e-02
7.672890e+01 2.630682e-02
7.796990e+01 2.482826e-02
7.923100e+01 2.343283e-02
8.051250e+01 2.211578e-02
8.181470e+01 2.147336e-02
8.313800e+01 2.087715e-02
8.448270e+01 2.029750e-02
8.584910e+01 1.973398e-02
8.723770e+01 1.933841e-02
8.864870e+01 1.902108e-02
9.008250e+01 1.870903e-02
9.153950e+01 1.840211e-02
9.302010e+01 1.840245e-02
9.452460e+01 1.842284e-02
9.605350e+01 1.844326e-02
9.760710e+01 1.872666e-02
9.918580e+01 1.904475e-02
1.007900e+02 1.936825e-02
1.024200e+02 2.011307e-02
1.040770e+02 2.088942e-02
1.057600e+02 2.169550e-02
1.074710e+02 2.253290e-02
1.092090e+02 2.340245e-02
1.109750e+02 2.526277e-02
1.127700e+02 2.768300e-02
1.145940e+02 3.033522e-02
1.164480e+02 3.324142e-02
1.183310e+02 3.642584e-02
1.202450e+02 3.991555e-02
1.221900e+02 4.373939e-02
1.241660e+02 4.792937e-02
1.261750e+02 5.252167e-02
1.282150e+02 5.755296e-02
1.302890e+02 6.327815e-02
1.323970e+02 7.033943e-02
1.345380e+02 7.818808e-02
1.367140e+02 8.691281e-02
1.389250e+02 9.661100e-02
1.411720e+02 1.073912e-01
1.434560e+02 1.193753e-01
1.457760e+02 1.326952e-01
1.481340e+02 1.475020e-01
1.505300e+02 1.639614e-01
1.529640e+02 1.822566e-01
1.554390e+02 2.104420e-01
1.579530e+02 2.449818e-01
1.605070e+02 2.852848e-01
1.631030e+02 3.323676e-01
1.657420e+02 3.723830e-01
1.684220e+02 3.991341e-01
1.711460e+02 4.198641e-01
1.739150e+02 4.370277e-01
1.767270e+02 4.514773e-01
1.795860e+02 4.579972e-01
1.824910e+02 4.646100e-01
1.854420e+02 4.633293e-01
1.884420e+02 4.599850e-01
1.914890e+02 4.506157e-01
1.945870e+02 4.391206e-01
1.977340e+02 4.279174e-01
2.009320e+02 4.169692e-01
2.041820e+02 4.062461e-01
2.074850e+02 3.958006e-01
2.108400e+02 3.856202e-01
2.142510e+02 3.757053e-01
2.177160e+02 3.660435e-01
2.212370e+02 3.566296e-01
2.248160e+02 3.474596e-01
2.284520e+02 3.391276e-01
2.321470e+02 3.319995e-01
2.359020e+02 3.250219e-01
2.397170e+02 3.181893e-01
2.435950e+02 3.115024e-01
2.475350e+02 3.049557e-01
2.515380e+02 2.985451e-01
2.556070e+02 2.922708e-01
2.597410e+02 2.883793e-01
2.639420e+02 2.853505e-01
2.682110e+02 2.823533e-01
2.725490e+02 2.793869e-01
2.769570e+02 2.764522e-01
2.814370e+02 2.735485e-01
2.859890e+02 2.706756e-01
2.906150e+02 2.706295e-01
2.953150e+02 2.706528e-01
3.000920e+02 2.706763e-01
3.049450e+02 2.719401e-01
3.098780e+02 2.741010e-01
3.148900e+02 2.762786e-01
3.199830e+02 2.784734e-01
3.251580e+02 2.806852e-01
3.304180e+02 2.829155e-01
3.357620e+02 2.851630e-01
3.411920e+02 2.877976e-01
3.467110e+02 2.926709e-01
3.523190e+02 2.976262e-01
3.580170e+02 3.026650e-01
3.638080e+02 3.077900e-01
3.696920e+02 3.130009e-01
3.756720e+02 3.183010e-01
3.817480e+02 3.236899e-01
3.879220e+02 3.291699e-01
3.941970e+02 3.347440e-01
4.005730e+02 3.405121e-01
4.070520e+02 3.480489e-01
4.136350e+02 3.557515e-01
4.203260e+02 3.636260e-01
4.271240e+02 3.716733e-01
4.340320e+02 3.798992e-01
4.410520e+02 3.883074e-01
4.481860e+02 3.969019e-01
4.554350e+02 4.056866e-01
4.628020e+02 4.146660e-01
4.702870e+02 4.248676e-01
4.778940e+02 4.362520e-01
4.856230e+02 4.479400e-01
4.934780e+02 4.599431e-01
5.014590e+02 4.722659e-01
5.095700e+02 4.849191e-01
5.178120e+02 4.979475e-01
5.261870e+02 5.113480e-01
5.346980e+02 5.251092e-01
5.433460e+02 5.392398e-01
5.521340e+02 5.537516e-01
5.610650e+02 5.686541e-01
5.701390e+02 5.839567e-01
5.793610e+02 5.981713e-01
5.887320e+02 6.122566e-01
5.982540e+02 6.266522e-01
6.079300e+02 6.413876e-01
6.177630e+02 6.564700e-01
6.199000e+02 6.597619e-01
6.201000e+02 9.220870e-02
6.277550e+02 9.538981e-02
6.379080e+02 9.971568e-02
6.482260e+02 1.042378e-01
6.587110e+02 1.089655e-01
6.693650e+02 1.139105e-01
6.801910e+02 1.187537e-01
6.911930e+02 1.235326e-01
7.023720e+02 1.283841e-01
7.137330e+02 1.334090e-01
7.252770e+02 1.386180e-01
7.370080e+02 1.440397e-01
7.489280e+02 1.496673e-01
7.610420e+02 1.555044e-01
7.733510e+02 1.614951e-01
7.858590e+02 1.674289e-01
7.985700e+02 1.733334e-01
8.114860e+02 1.794358e-01
8.246110e+02 1.857608e-01
8.379490e+02 1.923151e-01
8.515020e+02 1.962905e-01
8.652740e+02 1.972177e-01
8.792690e+02 1.953687e-01
8.934910e+02 1.935304e-01
9.079430e+02 1.917063e-01
9.226280e+02 1.898962e-01
9.375510e+02 1.939307e-01
9.527150e+02 1.995926e-01
9.681240e+02 2.068173e-01
9.837830e+02 2.143119e-01
9.996950e+02 2.220257e-01
1.015860e+03 2.299586e-01
1.032290e+03 2.376566e-01
1.048990e+03 2.454303e-01
1.065960e+03 2.532570e-01
1.083200e+03 2.613297e-01
1.100720e+03 2.696593e-01
1.118520e+03 2.782554e-01
1.136610e+03 2.871258e-01
1.155000e+03 2.962819e-01
1.173680e+03 3.057294e-01
1.192660e+03 3.154736e-01
1.211950e+03 3.255311e-01
1.231550e+03 3.359079e-01
1.251470e+03 3.470944e-01
1.271720e+03 3.591975e-01
1.292290e+03 3.724167e-01
1.313190e+03 3.861188e-01
1.334430e+03 4.003272e-01
1.356010e+03 4.150577e-01
1.377940e+03 4.303361e-01
1.400230e+03 4.461740e-01
1.422880e+03 4.625931e-01
1.445890e+03 4.796163e-01
1.469280e+03 4.973137e-01
1.493040e+03 5.157328e-01
1.517190e+03 5.351358e-01
1.541730e+03 5.553129e-01
1.566670e+03 5.762536e-01
1.592010e+03 5.979863e-01
1.617760e+03 6.205367e-01
1.643920e+03 6.439267e-01
1.670510e+03 6.682164e-01
1.697530e+03 6.934184e-01
1.724990e+03 7.195662e-01
1.752890e+03 7.469761e-01
1.781240e+03 7.755195e-01
1.810050e+03 8.052220e-01
1.839320e+03 8.360822e-01
1.869070e+03 8.681314e-01
1.899300e+03 9.013957e-01
1.930020e+03 9.359409e-01
1.961240e+03 9.718000e-01
1.992960e+03 1.009016e+00
2.025200e+03 1.047304e+00
2.057950e+03 1.087746e+00
2.091240e+03 1.129846e+00
2.125060e+03 1.173649e+00
2.159430e+03 1.219203e+00
2.194360e+03 1.266616e+00
2.229850e+03 1.316007e+00
2.265920e+03 1.367367e+00
2.302570e+03 1.420822e+00
2.339810e+03 1.476495e+00
2.377660e+03 1.534449e+00
2.416110e+03 1.594816e+00
2.455190e+03 1.657634e+00
2.494900e+03 1.723104e+00
2.535260e+03 1.791258e+00
2.576260e+03 1.862291e+00
2.617930e+03 1.936297e+00
2.660270e+03 2.013421e+00
2.703300e+03 2.093679e+00
2.747030e+03 2.177422e+00
2.791460e+03 2.264701e+00
2.836610e+03 2.355691e+00
2.882490e+03 2.450597e+00
2.929110e+03 2.549555e+00
2.976480e+03 2.652783e+00
3.024630e+03 2.760451e+00
3.073550e+03 2.872801e+00
3.123260e+03 2.990077e+00
3.173780e+03 3.112458e+00
3.225110e+03 3.240223e+00
3.277270e+03 3.373643e+00
3.330280e+03 3.512998e+00
3.384150e+03 3.658562e+00
3.438880e+03 3.810653e+00
3.494500e+03 3.969610e+00
3.551020e+03 4.135751e+00
3.608460e+03 4.309523e+00
3.666820e+03 4.491246e+00
3.726130e+03 4.681294e+00
3.786400e+03 4.880277e+00
3.847640e+03 5.088516e+00
3.909870e+03 5.306451e+00
3.973110e+03 5.534781e+00
4.037380e+03 5.774003e+00
4.102680e+03 6.024673e+00
4.169030e+03 6.287489e+00
4.236460e+03 6.563124e+00
4.304980e+03 6.852115e+00
4.374620e+03 7.155663e+00
4.445370e+03 7.474362e+00
4.517270e+03 7.808907e+00
4.557000e+03 7.997752e+00
4.557200e+03 2.553582e+00
4.590330e+03 2.602531e+00
4.664580e+03 2.714303e+00
4.740030e+03 2.830873e+00
4.816690e+03 2.952417e+00
4.852000e+03 3.009469e+00
4.852200e+03 2.206029e+00
4.894600e+03 2.257365e+00
4.973770e+03 2.355228e+00
5.054210e+03 2.457286e+00
5.135960e+03 2.563798e+00
5.188000e+03 2.633052e+00
5.188200e+03 2.268458e+00
5.219030e+03 2.302419e+00
5.303440e+03 2.396974e+00
5.389220e+03 2.495795e+00
5.476390e+03 2.598979e+00
5.564970e+03 2.706774e+00
5.654980e+03 2.819428e+00
5.746440e+03 2.937109e+00
5.839390e+03 3.060068e+00
5.933830e+03 3.188522e+00
6.029810e+03 3.322719e+00
6.127330e+03 3.462981e+00
6.226440e+03 3.609519e+00
6.327150e+03 3.762621e+00
6.429480e+03 3.922593e+00
6.533480e+03 4.089747e+00
6.639150e+03 4.264417e+00
6.746540e+03 4.446926e+00
6.855650e+03 4.637613e+00
6.966540e+03 4.836913e+00
7.079220e+03 5.045222e+00
7.193720e+03 5.262813e+00
7.310070e+03 5.490299e+00
7.428310e+03 5.727986e+00
7.548450e+03 5.976273e+00
7.670540e+03 6.235809e+00
7.794610e+03 6.507066e+00
7.920680e+03 6.790507e+00
8.048790e+03 7.086924e+00
8.178980e+03 7.396678e+00
8.311260e+03 7.720114e+00
8.445690e+03 8.058264e+00
8.582290e+03 8.412022e+00
8.721110e+03 8.781428e+00
8.862160e+03 9.167456e+00
9.005500e+03 9.570988e+00
9.151160e+03 9.993263e+00
9.299170e+03 1.043398e+01
9.449580e+03 1.089490e+01
9.602420e+03 1.137658e+01
9.757730e+03 1.188023e+01
9.915550e+03 1.240679e+01
1.007590e+04 1.295692e+01
1.023890e+04 1.353201e+01
1.040450e+04 1.413308e+01
1.057280e+04 1.476145e+01
1.074380e+04 1.541823e+01
1.091760e+04 1.610479e+01
1.109420e+04 1.682248e+01
1.127360e+04 1.757258e+01
1.145590e+04 1.835670e+01
1.164120e+04 1.917644e+01
1.182950e+04 2.003336e+01
1.202080e+04 2.092903e+01
1.221530e+04 2.186557e+01
1.241280e+04 2.284425e+01
1.261360e+04 2.386763e+01
1.281760e+04 2.493731e+01
1.302500e+04 2.605577e+01
1.323560e+04 2.722466e+01
1.344970e+04 2.844678e+01
1.366720e+04 2.972427e+01
1.388830e+04 3.106003e+01
1.411290e+04 3.245622e+01
1.434120e+04 3.391599e+01
1.457310e+04 3.544198e+01
1.480890e+04 3.703768e+01
1.504840e+04 3.870561e+01
1.529180e+04 4.044927e+01
1.553910e+04 4.227236e+01
1.579040e+04 4.417833e+01
1.604580e+04 4.617095e+01
1.630540e+04 4.825463e+01
1.656910e+04 5.043274e+01
1.683710e+04 5.271048e+01
1.710940e+04 5.509135e+01
1.738610e+04 5.758103e+01
1.766740e+04 6.018438e+01
1.795310e+04 6.290605e+01
1.824350e+04 6.575205e+01
1.853860e+04 6.872795e+01
1.883840e+04 7.183922e+01
1.914310e+04 7.509328e+01
1.945270e+04 7.849527e+01
1.976740e+04 8.205337e+01
2.008710e+04 8.577335e+01
2.041200e+04 8.966435e+01
2.074210e+04 9.373263e+01
2.107760e+04 9.798761e+01
2.141850e+04 1.024368e+02
2.176500e+04 1.070908e+02
2.211700e+04 1.119585e+02
2.247470e+04 1.170488e+02
2.283820e+04 1.223734e+02
2.320760e+04 1.279429e+02
2.358300e+04 1.337682e+02
2.396440e+04 1.398613e+02
2.435200e+04 1.462364e+02
2.474590e+04 1.529047e+02
2.514620e+04 1.598814e+02
2.555290e+04 1.671798e+02
2.596620e+04 1.748160e+02
2.638610e+04 1.828054e+02
2.681290e+04 1.911658e+02
2.724660e+04 1.999142e+02
2.768730e+04 2.090691e+02
2.813510e+04 2.186497e+02
2.859020e+04 2.286773e+02
2.905260e+04 2.391719e+02
2.952250e+04 2.501575e+02
3.000000e+04 2.616568e+02
