# material=La density=6.146
# Photon Energy [eV]  Attenuation Length [um]
1.000000e+01 1.621401e-02
1.011520e+01 1.652462e-02
1.023170e+01 1.684110e-02
1.034960e+01 1.716377e-02
1.046880e+01 1.751755e-02
1.058940e+01 1.800054e-02
1.071140e+01 1.849695e-02
1.083480e+01 1.900698e-02
1.095960e+01 1.953103e-02
1.108590e+01 2.006969e-02
1.121360e+01 2.062308e-02
1.134280e+01 2.119173e-02
1.147340e+01 2.177600e-02
1.160560e+01 2.237649e-02
1.173930e+01 2.299350e-02
1.187450e+01 2.362745e-02
1.201130e+01 2.427895e-02
1.214970e+01 2.494845e-02
1.228970e+01 2.563642e-02
1.243120e+01 2.634320e-02
1.257440e+01 2.707199e-02
1.271930e+01 2.782962e-02
1.286580e+01 2.860817e-02
1.301400e+01 2.940865e-02
1.316400e+01 3.023160e-02
1.331560e+01 3.107740e-02
1.346900e+01 3.194699e-02
1.362420e+01 3.284085e-02
1.378110e+01 3.375965e-02
1.393990e+01 3.470442e-02
1.410050e+01 3.565174e-02
1.426290e+01 3.662232e-02
1.442720e+01 3.761952e-02
1.459340e+01 3.864368e-02
1.476150e+01 3.969572e-02
1.493160e+01 4.077665e-02
1.510360e+01 4.184336e-02
1.527760e+01 4.290616e-02
1.545360e+01 4.399559e-02
1.563160e+01 4.511284e-02
1.581170e+01 4.489490e-02
1.599380e+01 4.435329e-02
1.617810e+01 4.223447e-02
1.636440e+01 3.569829e-02
1.655290e+01 2.926894e-02
1.674360e+01 2.422071e-02
1.693650e+01 2.191132e-02
1.713160e+01 1.982207e-02
1.732900e+01 1.810851e-02
1.752860e+01 1.668942e-02
1.773050e+01 1.538153e-02
1.793480e+01 1.446380e-02
1.814140e+01 1.382278e-02
1.835040e+01 1.326899e-02
1.856180e+01 1.315401e-02
1.877560e+01 1.303999e-02
1.899190e+01 1.292699e-02
1.921070e+01 1.251301e-02
1.943200e+01 1.201275e-02
1.965580e+01 1.153246e-02
1.988230e+01 1.107143e-02
2.011130e+01 1.062877e-02
2.034300e+01 1.031654e-02
2.057730e+01 1.002875e-02
2.081440e+01 9.749040e-03
2.105420e+01 9.649633e-03
2.129670e+01 9.724843e-03
2.154210e+01 9.800738e-03
2.179020e+01 9.877134e-03
2.204120e+01 9.954196e-03
2.229520e+01 9.595529e-03
2.255200e+01 9.127918e-03
2.281180e+01 8.683087e-03
2.307460e+01 8.303122e-03
2.334040e+01 8.145547e-03
2.360930e+01 7.990988e-03
2.388120e+01 7.839315e-03
2.415640e+01 7.724704e-03
2.443460e+01 7.724718e-03
2.471610e+01 7.724684e-03
2.500080e+01 7.724706e-03
2.528890e+01 7.724711e-03
2.558020e+01 7.724728e-03
2.587490e+01 7.724728e-03
2.617290e+01 7.727699e-03
2.647440e+01 7.993995e-03
2.677940e+01 8.269497e-03
2.708790e+01 8.595250e-03
2.740000e+01 9.158015e-03
2.771560e+01 9.757594e-03
2.803490e+01 1.039645e-02
2.835790e+01 1.106228e-02
2.868450e+01 1.157298e-02
2.901500e+01 1.210732e-02
2.934920e+01 1.266628e-02
2.968730e+01 1.325098e-02
3.002930e+01 1.386286e-02
3.037530e+01 1.450289e-02
3.072520e+01 1.517237e-02
3.107910e+01 1.584762e-02
3.143720e+01 1.647185e-02
3.179930e+01 1.712037e-02
3.216560e+01 1.779452e-02
3.253620e+01 1.849526e-02
3.291100e+01 1.922356e-02
3.329010e+01 1.998052e-02
3.367360e+01 2.076730e-02
3.406160e+01 2.158638e-02
3.445390e+01 2.246923e-02
3.485080e+01 2.338829e-02
3.525230e+01 2.434497e-02
3.565840e+01 2.534071e-02
3.606920e+01 2.637723e-02
3.648470e+01 2.745612e-02
3.690500e+01 2.857913e-02
3.733020e+01 2.965109e-02
3.776020e+01 3.065266e-02
3.819520e+01 3.168818e-02
3.863520e+01 3.275861e-02
3.908030e+01 3.386518e-02
3.953050e+01 3.500914e-02
3.998590e+01 3.619179e-02
4.044650e+01 3.741429e-02
4.091240e+01 3.867815e-02
4.138370e+01 3.998469e-02
4.186050e+01 4.133546e-02
4.234270e+01 4.312017e-02
4.283050e+01 4.531996e-02
4.332390e+01 4.763194e-02
4.382300e+01 5.006196e-02
4.432780e+01 5.261577e-02
4.483850e+01 5.530006e-02
4.535500e+01 5.812120e-02
4.587750e+01 6.121440e-02
4.640600e+01 6.448987e-02
4.694060e+01 6.794070e-02
4.748130e+01 7.157589e-02
4.802830e+01 7.540577e-02
4.858160e+01 7.981968e-02
4.914130e+01 8.501860e-02
4.970740e+01 9.055642e-02
5.028000e+01 9.645444e-02
5.085920e+01 1.027366e-01
5.144510e+01 1.094285e-01
5.203770e+01 1.147618e-01
5.263720e+01 1.194788e-01
5.324360e+01 1.243895e-01
5.385700e+01 1.295021e-01
5.447740e+01 1.348250e-01
5.510500e+01 1.403664e-01
5.573980e+01 1.461085e-01
5.638190e+01 1.504773e-01
5.703140e+01 1.549770e-01
5.768840e+01 1.596105e-01
5.835300e+01 1.643835e-01
5.902520e+01 1.692980e-01
5.970510e+01 1.743600e-01
6.039290e+01 1.794549e-01
6.108870e+01 1.824734e-01
6.179240e+01 1.855423e-01
6.250420e+01 1.886637e-01
6.322430e+01 1.918366e-01
6.395260e+01 1.950636e-01
6.468930e+01 1.983446e-01
6.543460e+01 2.016810e-01
6.618840e+01 2.049866e-01
6.695080e+01 2.082496e-01
6.772210e+01 2.115652e-01
6.850230e+01 2.149339e-01
6.929140e+01 2.183550e-01
7.008960e+01 2.218322e-01
7.089710e+01 2.253640e-01
7.171380e+01 2.289520e-01
7.253990e+01 2.325959e-01
7.337560e+01 2.362998e-01
7.422090e+01 2.387729e-01
7.507590e+01 2.399068e-01
7.594070e+01 2.410454e-01
7.681560e+01 2.421908e-01
7.770050e+01 2.433409e-01
7.859560e+01 2.444975e-01
7.950100e+01 2.456592e-01
8.041680e+01 2.449449e-01
8.134320e+01 2.438380e-01
8.228030e+01 2.427345e-01
8.322820e+01 2.416367e-01
8.418690e+01 2.405440e-01
8.515680e+01 2.394567e-01
8.613780e+01 2.383738e-01
8.713010e+01 2.348753e-01
8.813380e+01 2.310396e-01
8.914910e+01 2.272686e-01
9.017610e+01 2.235582e-01
9.121490e+01 2.199081e-01
9.226570e+01 2.158284e-01
9.332860e+01 2.077992e-01
9.440370e+01 2.000693e-01
9.549120e+01 1.926268e-01
9.659130e+01 1.871701e-01
9.770400e+01 1.823550e-01
9.882960e+01 1.776639e-01
9.996810e+01 1.721177e-01
1.011200e+02 1.610688e-01
1.022850e+02 1.507290e-01
1.034630e+02 1.410521e-01
1.046550e+02 1.272419e-01
1.058600e+02 1.137962e-01
1.070800e+02 9.868355e-02
1.083130e+02 8.439541e-02
1.095610e+02 7.033742e-02
1.107530e+02 5.537659e-02
1.120080e+02 4.029719e-02
1.132980e+02 2.429621e-02
1.134760e+02 2.267160e-02
1.144870e+02 1.624929e-02
1.151350e+02 1.294873e-02
1.158620e+02 1.062693e-02
1.165670e+02 9.219504e-03
1.179100e+02 7.661541e-03
1.192680e+02 7.290317e-03
1.206420e+02 7.510727e-03
1.220320e+02 7.996558e-03
1.234380e+02 8.949762e-03
1.248600e+02 1.019253e-02
1.262980e+02 1.161938e-02
1.277530e+02 1.283487e-02
1.292250e+02 1.415819e-02
1.307130e+02 1.561786e-02
1.322190e+02 1.717516e-02
1.337420e+02 1.878009e-02
1.352830e+02 2.053508e-02
1.368410e+02 2.272626e-02
1.384180e+02 2.535523e-02
1.400120e+02 2.828823e-02
1.416250e+02 3.182284e-02
1.432570e+02 3.602323e-02
1.449070e+02 4.077765e-02
1.465760e+02 4.597059e-02
1.482650e+02 5.115356e-02
1.499730e+02 5.692075e-02
1.517010e+02 6.333838e-02
1.534480e+02 7.047856e-02
1.552160e+02 7.848121e-02
1.570040e+02 8.801767e-02
1.588130e+02 9.871334e-02
1.606420e+02 1.107082e-01
1.624930e+02 1.241612e-01
1.643650e+02 1.392487e-01
1.662580e+02 1.561692e-01
1.681730e+02 1.751456e-01
1.701110e+02 1.961394e-01
1.720700e+02 2.193495e-01
1.740530e+02 2.453069e-01
1.760580e+02 2.743357e-01
1.780860e+02 2.982664e-01
1.801370e+02 3.235914e-01
1.822130e+02 3.530354e-01
1.843120e+02 3.833745e-01
1.864350e+02 4.096238e-01
1.885830e+02 4.340658e-01
1.907550e+02 4.598398e-01
1.929530e+02 4.606825e-01
1.951750e+02 4.581387e-01
1.974240e+02 4.556102e-01
1.996980e+02 4.415479e-01
2.019990e+02 4.248167e-01
2.043260e+02 4.087196e-01
2.066790e+02 3.938876e-01
2.090600e+02 3.799136e-01
2.114690e+02 3.664352e-01
2.139050e+02 3.554489e-01
2.163690e+02 3.452419e-01
2.188620e+02 3.353277e-01
2.213830e+02 3.256977e-01
2.239330e+02 3.163431e-01
2.265130e+02 3.072592e-01
2.291220e+02 2.993460e-01
2.317620e+02 2.934580e-01
2.344320e+02 2.876854e-01
2.371320e+02 2.820258e-01
2.398640e+02 2.764779e-01
2.426270e+02 2.710394e-01
2.454220e+02 2.657078e-01
2.482490e+02 2.604807e-01
2.511090e+02 2.559415e-01
2.540020e+02 2.519589e-01
2.569280e+02 2.480375e-01
2.598880e+02 2.441777e-01
2.628820e+02 2.403780e-01
2.659100e+02 2.366367e-01
2.689730e+02 2.329536e-01
2.720720e+02 2.293291e-01
2.752060e+02 2.257599e-01
2.783770e+02 2.222473e-01
2.815830e+02 2.215053e-01
2.848270e+02 2.219990e-01
2.881080e+02 2.224934e-01
2.914270e+02 2.229892e-01
2.947850e+02 2.234865e-01
2.981810e+02 2.239842e-01
3.016160e+02 2.244833e-01
3.050900e+02 2.249828e-01
3.086050e+02 2.254845e-01
3.121600e+02 2.259741e-01
3.157560e+02 2.261367e-01
3.193930e+02 2.262991e-01
3.230730e+02 2.264627e-01
3.267940e+02 2.266249e-01
3.305590e+02 2.267885e-01
3.343670e+02 2.269516e-01
3.382190e+02 2.271148e-01
3.421150e+02 2.272784e-01
3.460560e+02 2.274417e-01
3.500430e+02 2.276058e-01
3.540750e+02 2.277692e-01
3.581540e+02 2.282561e-01
3.622800e+02 2.294073e-01
3.664540e+02 2.305651e-01
3.706750e+02 2.317275e-01
3.749450e+02 2.328962e-01
3.792650e+02 2.340712e-01
3.836340e+02 2.352519e-01
3.880530e+02 2.364381e-01
3.925230e+02 2.376305e-01
3.970450e+02 2.388290e-01
4.016190e+02 2.400338e-01
4.062460e+02 2.412446e-01
4.109260e+02 2.428611e-01
4.156600e+02 2.445296e-01
4.204480e+02 2.462093e-01
4.252910e+02 2.479004e-01
4.301910e+02 2.496037e-01
4.351470e+02 2.513186e-01
4.401590e+02 2.530448e-01
4.452300e+02 2.547834e-01
4.503590e+02 2.565338e-01
4.555470e+02 2.582963e-01
4.607950e+02 2.600707e-01
4.661030e+02 2.635440e-01
4.714730e+02 2.672104e-01
4.769040e+02 2.709275e-01
4.823980e+02 2.746962e-01
4.879550e+02 2.785176e-01
4.935760e+02 2.823916e-01
4.992620e+02 2.863198e-01
5.050140e+02 2.903032e-01
5.108310e+02 2.943411e-01
5.167160e+02 2.998059e-01
5.226690e+02 3.054108e-01
5.286900e+02 3.111200e-01
5.347800e+02 3.169363e-01
5.409410e+02 3.228616e-01
5.471720e+02 3.288971e-01
5.534760e+02 3.350460e-01
5.598520e+02 3.413096e-01
5.663010e+02 3.476901e-01
5.728250e+02 3.543606e-01
5.794240e+02 3.621692e-01
5.860990e+02 3.701494e-01
5.928510e+02 3.783060e-01
5.996800e+02 3.866418e-01
6.065890e+02 3.951617e-01
6.135760e+02 4.038688e-01
6.206450e+02 4.127685e-01
6.277950e+02 4.218642e-01
6.350270e+02 4.309337e-01
6.423420e+02 4.392459e-01
6.497420e+02 4.477189e-01
6.572270e+02 4.563556e-01
6.647980e+02 4.651589e-01
6.724560e+02 4.741313e-01
6.802030e+02 4.832770e-01
6.880390e+02 4.925997e-01
6.959650e+02 5.021021e-01
7.039820e+02 5.125886e-01
7.120920e+02 5.245864e-01
7.202960e+02 5.368658e-01
7.285930e+02 5.494317e-01
7.369870e+02 5.622922e-01
7.454770e+02 5.754541e-01
7.540640e+02 5.889226e-01
7.627510e+02 6.027079e-01
7.715380e+02 6.168157e-01
7.804260e+02 6.312532e-01
7.894160e+02 6.460279e-01
7.985100e+02 6.611494e-01
8.077090e+02 6.766246e-01
8.170140e+02 6.924626e-01
8.264260e+02 7.086705e-01
8.359000e+02 7.251771e-01
8.361000e+02 1.275211e-01
8.455760e+02 1.314464e-01
8.553170e+02 1.355596e-01
8.651700e+02 1.398015e-01
8.751370e+02 1.441760e-01
8.852190e+02 1.486875e-01
8.954160e+02 1.533403e-01
9.057310e+02 1.581387e-01
9.161650e+02 1.630873e-01
9.267190e+02 1.681903e-01
9.373950e+02 1.734536e-01
9.481940e+02 1.788814e-01
9.591170e+02 1.839603e-01
9.701660e+02 1.866828e-01
9.813420e+02 1.894456e-01
9.926470e+02 1.922499e-01
1.004080e+03 1.950945e-01
1.015650e+03 1.979822e-01
1.027350e+03 2.009126e-01
1.039180e+03 2.038853e-01
1.051160e+03 2.069047e-01
1.059000e+03 2.088858e-01
1.067000e+03 2.105155e-01
1.079290e+03 2.130194e-01
1.091730e+03 2.155539e-01
1.104300e+03 2.181159e-01
1.117020e+03 2.207094e-01
1.129890e+03 2.233337e-01
1.142910e+03 2.259904e-01
1.156070e+03 2.286759e-01
1.169390e+03 2.313951e-01
1.182860e+03 2.341467e-01
1.196490e+03 2.369321e-01
1.210270e+03 2.397493e-01
1.224210e+03 2.425984e-01
1.238320e+03 2.456946e-01
1.252580e+03 2.491821e-01
1.267010e+03 2.530726e-01
1.281610e+03 2.579631e-01
1.296370e+03 2.629462e-01
1.311310e+03 2.680273e-01
1.326410e+03 2.732045e-01
1.341690e+03 2.784856e-01
1.357150e+03 2.838689e-01
1.372780e+03 2.893524e-01
1.388600e+03 2.949429e-01
1.404590e+03 3.006398e-01
1.420770e+03 3.064490e-01
1.437140e+03 3.123709e-01
1.453700e+03 3.184070e-01
1.470440e+03 3.248677e-01
1.487380e+03 3.316540e-01
1.504520e+03 3.393373e-01
1.521850e+03 3.479836e-01
1.539380e+03 3.568490e-01
1.557120e+03 3.659381e-01
1.575050e+03 3.752550e-01
1.593200e+03 3.848181e-01
1.611550e+03 3.946205e-01
1.630120e+03 4.046750e-01
1.648890e+03 4.149815e-01
1.667890e+03 4.255541e-01
1.687100e+03 4.363949e-01
1.706540e+03 4.475097e-01
1.726200e+03 4.589052e-01
1.746080e+03 4.707471e-01
1.766200e+03 4.829374e-01
1.786550e+03 4.954867e-01
1.807130e+03 5.083795e-01
1.827940e+03 5.216021e-01
1.849000e+03 5.351690e-01
1.870300e+03 5.490896e-01
1.891850e+03 5.633800e-01
1.913640e+03 5.780352e-01
1.935690e+03 5.930709e-01
1.957990e+03 6.085016e-01
1.980540e+03 6.243389e-01
2.003360e+03 6.405558e-01
2.026440e+03 6.569739e-01
2.049780e+03 6.742310e-01
2.073390e+03 6.919900e-01
2.097280e+03 7.102332e-01
2.121440e+03 7.289773e-01
2.145880e+03 7.482568e-01
2.170600e+03 7.680865e-01
2.195600e+03 7.884654e-01
2.220900e+03 8.094193e-01
2.246480e+03 8.309325e-01
2.272360e+03 8.531132e-01
2.298540e+03 8.759036e-01
2.325020e+03 8.993302e-01
2.351800e+03 9.234219e-01
2.378890e+03 9.481997e-01
2.406300e+03 9.736853e-01
2.434020e+03 9.998928e-01
2.462060e+03 1.026869e+00
2.490420e+03 1.054568e+00
2.519110e+03 1.083112e+00
2.548130e+03 1.112493e+00
2.577480e+03 1.142705e+00
2.607180e+03 1.173836e+00
2.637210e+03 1.205876e+00
2.667590e+03 1.238804e+00
2.698320e+03 1.272706e+00
2.729410e+03 1.307627e+00
2.760850e+03 1.343494e+00
2.792650e+03 1.380443e+00
2.824820e+03 1.418513e+00
2.857360e+03 1.457765e+00
2.890280e+03 1.498169e+00
2.923580e+03 1.539726e+00
2.957260e+03 1.582525e+00
2.991320e+03 1.626611e+00
3.025780e+03 1.672131e+00
3.060640e+03 1.718950e+00
3.095900e+03 1.767194e+00
3.131560e+03 1.816909e+00
3.167640e+03 1.868137e+00
3.204130e+03 1.920934e+00
3.241040e+03 1.975349e+00
3.278380e+03 2.031448e+00
3.316140e+03 2.089279e+00
3.354350e+03 2.148954e+00
3.392990e+03 2.210458e+00
3.432070e+03 2.273890e+00
3.471610e+03 2.339336e+00
3.511600e+03 2.406837e+00
3.552060e+03 2.476474e+00
3.592980e+03 2.548328e+00
3.634370e+03 2.622479e+00
3.676240e+03 2.699029e+00
3.718590e+03 2.778081e+00
3.761420e+03 2.859656e+00
3.804750e+03 2.943926e+00
3.848580e+03 3.030935e+00
3.892920e+03 3.120795e+00
3.937770e+03 3.213633e+00
3.983130e+03 3.309560e+00
4.029010e+03 3.408694e+00
4.075430e+03 3.511213e+00
4.122380e+03 3.617172e+00
4.169870e+03 3.726752e+00
4.217900e+03 3.840024e+00
4.266490e+03 3.957195e+00
4.315640e+03 4.078460e+00
4.365360e+03 4.203847e+00
4.415650e+03 4.333733e+00
4.466510e+03 4.468164e+00
4.517970e+03 4.607373e+00
4.570010e+03 4.751555e+00
4.622660e+03 4.900914e+00
4.675910e+03 5.055649e+00
4.729780e+03 5.215977e+00
4.784270e+03 5.382215e+00
4.839380e+03 5.554613e+00
4.895130e+03 5.733297e+00
4.951520e+03 5.918942e+00
5.008560e+03 6.111532e+00
5.066260e+03 6.311507e+00
5.124620e+03 6.519169e+00
5.183660e+03 6.734843e+00
5.243370e+03 6.958857e+00
5.303780e+03 7.191739e+00
5.364880e+03 7.433718e+00
5.426680e+03 7.685870e+00
5.482600e+03 7.918803e+00
5.482800e+03 2.550770e+00
5.489190e+03 2.559152e+00
5.552430e+03 2.643032e+00
5.616390e+03 2.729628e+00
5.681090e+03 2.819056e+00
5.746540e+03 2.911437e+00
5.812740e+03 3.006809e+00
5.879700e+03 3.105329e+00
5.890500e+03 3.121407e+00
5.890700e+03 2.269581e+00
5.947430e+03 2.330066e+00
6.015950e+03 2.404441e+00
6.085250e+03 2.481216e+00
6.155350e+03 2.560435e+00
6.226260e+03 2.642216e+00
6.266200e+03 2.688995e+00
6.266400e+03 2.344469e+00
6.297990e+03 2.373816e+00
6.370540e+03 2.442052e+00
6.443930e+03 2.512432e+00
6.518160e+03 2.585080e+00
6.593250e+03 2.660037e+00
6.669200e+03 2.737418e+00
6.746030e+03 2.817267e+00
6.823740e+03 2.899638e+00
6.902350e+03 2.984662e+00
6.981870e+03 3.072353e+00
7.062300e+03 3.162891e+00
7.143660e+03 3.256295e+00
7.225950e+03 3.352677e+00
7.309190e+03 3.452226e+00
7.393390e+03 3.554925e+00
7.478560e+03 3.660867e+00
7.564720e+03 3.770222e+00
7.651860e+03 3.883052e+00
7.740010e+03 3.999508e+00
7.829180e+03 4.119703e+00
7.919370e+03 4.243746e+00
8.010600e+03 4.371747e+00
8.102880e+03 4.503834e+00
8.196220e+03 4.640228e+00
8.290640e+03 4.780917e+00
8.386150e+03 4.926142e+00
8.482760e+03 5.076043e+00
8.580480e+03 5.230723e+00
8.679330e+03 5.390366e+00
8.779310e+03 5.555233e+00
8.880450e+03 5.725408e+00
8.982750e+03 5.901009e+00
9.086230e+03 6.082199e+00
9.190900e+03 6.269175e+00
9.296780e+03 6.462195e+00
9.403880e+03 6.661503e+00
9.512210e+03 6.867254e+00
9.621790e+03 7.079455e+00
9.732630e+03 7.298536e+00
9.844750e+03 7.524745e+00
9.958160e+03 7.758205e+00
1.007290e+04 7.999205e+00
1.018890e+04 8.247923e+00
1.030630e+04 8.504712e+00
1.042500e+04 8.769740e+00
1.054510e+04 9.043333e+00
1.066660e+04 9.325772e+00
1.078950e+04 9.617315e+00
1.091380e+04 9.918244e+00
1.103950e+04 1.022885e+01
1.116670e+04 1.054955e+01
1.129530e+04 1.088051e+01
1.142540e+04 1.122220e+01
1.155700e+04 1.157491e+01
1.169020e+04 1.193910e+01
1.182490e+04 1.231501e+01
1.196110e+04 1.270300e+01
1.209890e+04 1.310358e+01
1.223820e+04 1.351698e+01
1.237920e+04 1.394386e+01
1.252180e+04 1.438450e+01
1.266610e+04 1.483944e+01
1.281200e+04 1.530903e+01
1.295960e+04 1.579383e+01
1.310890e+04 1.629426e+01
1.325990e+04 1.681090e+01
1.341260e+04 1.734414e+01
1.356720e+04 1.789485e+01
1.372340e+04 1.846311e+01
1.388150e+04 1.904988e+01
1.404150e+04 1.965571e+01
1.420320e+04 2.028099e+01
1.436680e+04 2.092646e+01
1.453230e+04 2.159290e+01
1.469970e+04 2.228088e+01
1.486910e+04 2.299119e+01
1.504040e+04 2.372439e+01
1.521360e+04 2.448119e+01
1.538890e+04 2.526267e+01
1.556620e+04 2.606942e+01
1.574550e+04 2.690213e+01
1.592690e+04 2.776181e+01
1.611040e+04 2.864940e+01
1.629600e+04 2.956563e+01
1.648370e+04 3.051139e+01
1.667360e+04 3.148774e+01
1.686570e+04 3.249585e+01
1.705990e+04 3.353616e+01
1.725650e+04 3.461062e+01
1.745530e+04 3.571950e+01
1.765630e+04 3.686412e+01
1.785980e+04 3.804610e+01
1.806550e+04 3.926612e+01
1.827360e+04 4.052549e+01
1.848410e+04 4.182560e+01
1.869710e+04 4.316781e+01
1.891240e+04 4.455317e+01
1.913030e+04 4.598338e+01
1.935070e+04 4.746004e+01
1.957360e+04 4.898401e+01
1.979910e+04 5.055752e+01
2.002720e+04 5.218172e+01
2.025790e+04 5.385824e+01
2.049130e+04 5.558907e+01
2.072730e+04 5.737574e+01
2.096610e+04 5.922009e+01
2.120760e+04 6.112374e+01
2.145190e+04 6.308895e+01
2.169910e+04 6.511777e+01
2.194900e+04 6.721176e+01
2.220190e+04 6.937330e+01
2.245760e+04 7.160446e+01
2.271630e+04 7.390791e+01
2.297800e+04 7.628524e+01
2.324270e+04 7.873952e+01
2.351050e+04 8.127281e+01
2.378130e+04 8.388755e+01
2.405530e+04 8.658684e+01
2.433240e+04 8.937275e+01
2.461270e+04 9.224882e+01
2.489630e+04 9.521744e+01
2.518310e+04 9.828089e+01
2.547320e+04 1.014438e+02
2.576660e+04 1.047077e+02
2.606340e+04 1.080767e+02
2.636370e+04 1.115552e+02
2.666740e+04 1.151444e+02
2.697460e+04 1.188500e+02
2.728530e+04 1.226734e+02
2.759970e+04 1.266212e+02
2.791760e+04 1.306954e+02
2.823920e+04 1.348995e+02
2.856450e+04 1.392399e+02
2.889360e+04 1.437190e+02
2.922640e+04 1.483418e+02
2.956310e+04 1.531140e+02
2.990370e+04 1.580387e+02
3.000000e+04 1.594498e+02
