# material=Li density=0.535
# Photon Energy [eV]  Attenuation Length [um]
1.000000e+01 2.648312e-01
1.016170e+01 2.668011e-01
1.032610e+01 2.687874e-01
1.049310e+01 2.707864e-01
1.066280e+01 2.728002e-01
1.083530e+01 2.748325e-01
1.101060e+01 2.768780e-01
1.118860e+01 2.789380e-01
1.136960e+01 2.816919e-01
1.155350e+01 2.849271e-01
1.174040e+01 2.881970e-01
1.193030e+01 2.915054e-01
1.212320e+01 2.948494e-01
1.231930e+01 2.982331e-01
1.251860e+01 3.016580e-01
1.272100e+01 3.051187e-01
1.292680e+01 3.086215e-01
1.313590e+01 3.121633e-01
1.334830e+01 3.157457e-01
1.356420e+01 3.193703e-01
1.378360e+01 3.230435e-01
1.400660e+01 3.268116e-01
1.423310e+01 3.306203e-01
1.446330e+01 3.344757e-01
1.469730e+01 3.383770e-01
1.493500e+01 3.423209e-01
1.517650e+01 3.463090e-01
1.542200e+01 3.503474e-01
1.567140e+01 3.544305e-01
1.592490e+01 3.585645e-01
1.618250e+01 3.627460e-01
1.644420e+01 3.669741e-01
1.671020e+01 3.712522e-01
1.698050e+01 3.764464e-01
1.725510e+01 3.829967e-01
1.753420e+01 3.896630e-01
1.781780e+01 3.964455e-01
1.810600e+01 4.033470e-01
1.839890e+01 4.103671e-01
1.869640e+01 4.175069e-01
1.899880e+01 4.247735e-01
1.930610e+01 4.322365e-01
1.961840e+01 4.398513e-01
1.993570e+01 4.476033e-01
2.025820e+01 4.554910e-01
2.058580e+01 4.635160e-01
2.091880e+01 4.716856e-01
2.125710e+01 4.799948e-01
2.160090e+01 4.884520e-01
2.195030e+01 4.970600e-01
2.230530e+01 5.072037e-01
2.266610e+01 5.177872e-01
2.303270e+01 5.285901e-01
2.340530e+01 5.396194e-01
2.378380e+01 5.508794e-01
2.416850e+01 5.623712e-01
2.455940e+01 5.741057e-01
2.495660e+01 5.860836e-01
2.536030e+01 5.983168e-01
2.577050e+01 6.107989e-01
2.618730e+01 6.235441e-01
2.661090e+01 6.365556e-01
2.704130e+01 6.532729e-01
2.747860e+01 6.745029e-01
2.792310e+01 6.964311e-01
2.837470e+01 7.190607e-01
2.883370e+01 7.424336e-01
2.930000e+01 7.665592e-01
2.977390e+01 7.914767e-01
3.025550e+01 8.172013e-01
3.074490e+01 8.416871e-01
3.124210e+01 8.662441e-01
3.174750e+01 8.915219e-01
3.226090e+01 9.175303e-01
3.278270e+01 9.443048e-01
3.331300e+01 9.718561e-01
3.385180e+01 1.000210e+00
3.439930e+01 1.029399e+00
3.495570e+01 1.059427e+00
3.552110e+01 1.090347e+00
3.609560e+01 1.122157e+00
3.667940e+01 1.160915e+00
3.727270e+01 1.202382e+00
3.787550e+01 1.245329e+00
3.848820e+01 1.289814e+00
3.911070e+01 1.335886e+00
3.974320e+01 1.383600e+00
4.038610e+01 1.433024e+00
4.103930e+01 1.484210e+00
4.170310e+01 1.537225e+00
4.237760e+01 1.591491e+00
4.306300e+01 1.646055e+00
4.375950e+01 1.702489e+00
4.446730e+01 1.760863e+00
4.518650e+01 1.821235e+00
4.591740e+01 1.883677e+00
4.666000e+01 1.948258e+00
4.741470e+01 2.015055e+00
4.818160e+01 2.084144e+00
4.896090e+01 2.155600e+00
4.975280e+01 2.229507e+00
5.055760e+01 2.309714e+00
5.137530e+01 2.394646e+00
5.220620e+01 2.482706e+00
5.305060e+01 2.570064e+00
5.390870e+01 2.650209e+00
5.460000e+01 2.715631e+00
5.480000e+01 8.466139e-02
5.566670e+01 7.898216e-02
5.656700e+01 7.356887e-02
5.748200e+01 6.852631e-02
5.841170e+01 6.459670e-02
5.935640e+01 6.212379e-02
6.031650e+01 6.020698e-02
6.129210e+01 5.877791e-02
6.228340e+01 5.757351e-02
6.329080e+01 5.659626e-02
6.431450e+01 5.665232e-02
6.535470e+01 5.734414e-02
6.641180e+01 5.937526e-02
6.748590e+01 6.147830e-02
6.857750e+01 6.589872e-02
6.968670e+01 6.988348e-02
7.081380e+01 7.358307e-02
7.195910e+01 7.656901e-02
7.312300e+01 7.967598e-02
7.430570e+01 8.188962e-02
7.550760e+01 8.359517e-02
7.672890e+01 8.460006e-02
7.796990e+01 8.560284e-02
7.923100e+01 8.570316e-02
8.051250e+01 8.578879e-02
8.181470e+01 8.600727e-02
8.313800e+01 8.668693e-02
8.448270e+01 8.737189e-02
8.584910e+01 8.806219e-02
8.723770e+01 8.914195e-02
8.864870e+01 9.109216e-02
9.008250e+01 9.391739e-02
9.153950e+01 9.768090e-02
9.302010e+01 1.031939e-01
9.452460e+01 1.085174e-01
9.605350e+01 1.139426e-01
9.760710e+01 1.209317e-01
9.918580e+01 1.277620e-01
1.007900e+02 1.316121e-01
1.024200e+02 1.412523e-01
1.040770e+02 1.478169e-01
1.057600e+02 1.546997e-01
1.074710e+02 1.616018e-01
1.092090e+02 1.679763e-01
1.109750e+02 1.739442e-01
1.127700e+02 1.797366e-01
1.145940e+02 1.859506e-01
1.164480e+02 1.930497e-01
1.183310e+02 2.006135e-01
1.202450e+02 2.084749e-01
1.221900e+02 2.166446e-01
1.241660e+02 2.251339e-01
1.261750e+02 2.339582e-01
1.282150e+02 2.431246e-01
1.302890e+02 2.526562e-01
1.323970e+02 2.626043e-01
1.345380e+02 2.734081e-01
1.367140e+02 2.848485e-01
1.389250e+02 2.967693e-01
1.411720e+02 3.091894e-01
1.434560e+02 3.221299e-01
1.457760e+02 3.356111e-01
1.481340e+02 3.490867e-01
1.505300e+02 3.625306e-01
1.529640e+02 3.767506e-01
1.554390e+02 3.920001e-01
1.579530e+02 4.082206e-01
1.605070e+02 4.251091e-01
1.631030e+02 4.426977e-01
1.657420e+02 4.610175e-01
1.684220e+02 4.800975e-01
1.711460e+02 4.998268e-01
1.739150e+02 5.201728e-01
1.767270e+02 5.410654e-01
1.795860e+02 5.628102e-01
1.824910e+02 5.857997e-01
1.854420e+02 6.116144e-01
1.884420e+02 6.389873e-01
1.914890e+02 6.678325e-01
1.945870e+02 6.967787e-01
1.977340e+02 7.265849e-01
2.009320e+02 7.573353e-01
2.041820e+02 7.893953e-01
2.074850e+02 8.228079e-01
2.108400e+02 8.576221e-01
2.142510e+02 8.956353e-01
2.177160e+02 9.357034e-01
2.212370e+02 9.778725e-01
2.248160e+02 1.021941e+00
2.284520e+02 1.067997e+00
2.321470e+02 1.116137e+00
2.359020e+02 1.166421e+00
2.397170e+02 1.218973e+00
2.435950e+02 1.273913e+00
2.475350e+02 1.331327e+00
2.515380e+02 1.391331e+00
2.556070e+02 1.454053e+00
2.597410e+02 1.519556e+00
2.639420e+02 1.588050e+00
2.682110e+02 1.659681e+00
2.725490e+02 1.734399e+00
2.769570e+02 1.813521e+00
2.814370e+02 1.897686e+00
2.859890e+02 1.986567e+00
2.906150e+02 2.079746e+00
2.953150e+02 2.177297e+00
3.000920e+02 2.279444e+00
3.049450e+02 2.386357e+00
3.098780e+02 2.498296e+00
3.148900e+02 2.615476e+00
3.199830e+02 2.738162e+00
3.251580e+02 2.866583e+00
3.304180e+02 3.001050e+00
3.357620e+02 3.141819e+00
3.411920e+02 3.289182e+00
3.467110e+02 3.443467e+00
3.523190e+02 3.604994e+00
3.580170e+02 3.774045e+00
3.638080e+02 3.951067e+00
3.696920e+02 4.136400e+00
3.756720e+02 4.330447e+00
3.817480e+02 4.533562e+00
3.879220e+02 4.747999e+00
3.941970e+02 4.976714e+00
4.005730e+02 5.216917e+00
4.070520e+02 5.468947e+00
4.136350e+02 5.733257e+00
4.203260e+02 6.010221e+00
4.271240e+02 6.300516e+00
4.340320e+02 6.604948e+00
4.410520e+02 6.924077e+00
4.481860e+02 7.259298e+00
4.554350e+02 7.614279e+00
4.628020e+02 7.989463e+00
4.702870e+02 8.384688e+00
4.778940e+02 8.799626e+00
4.856230e+02 9.234920e+00
4.934780e+02 9.691737e+00
5.014590e+02 1.017107e+01
5.095700e+02 1.067413e+01
5.178120e+02 1.120158e+01
5.261870e+02 1.175353e+01
5.346980e+02 1.232917e+01
5.433460e+02 1.293119e+01
5.521340e+02 1.356310e+01
5.610650e+02 1.423631e+01
5.701390e+02 1.494768e+01
5.793610e+02 1.569226e+01
5.887320e+02 1.647210e+01
5.982540e+02 1.728971e+01
6.079300e+02 1.814879e+01
6.177630e+02 1.905000e+01
6.277550e+02 1.999726e+01
6.379080e+02 2.101251e+01
6.482260e+02 2.211156e+01
6.587110e+02 2.329054e+01
6.693650e+02 2.453246e+01
6.801910e+02 2.575982e+01
6.911930e+02 2.698272e+01
7.023720e+02 2.824545e+01
7.137330e+02 2.962963e+01
7.252770e+02 3.112699e+01
7.370080e+02 3.269982e+01
7.489280e+02 3.435196e+01
7.610420e+02 3.608762e+01
7.733510e+02 3.791278e+01
7.858590e+02 3.983537e+01
7.985700e+02 4.186001e+01
8.114860e+02 4.398678e+01
8.246110e+02 4.622193e+01
8.379490e+02 4.857088e+01
8.515020e+02 5.103539e+01
8.652740e+02 5.362025e+01
8.792690e+02 5.633159e+01
8.934910e+02 5.917932e+01
9.079430e+02 6.217120e+01
9.226280e+02 6.531437e+01
9.375510e+02 6.864684e+01
9.527150e+02 7.215618e+01
9.681240e+02 7.585135e+01
9.837830e+02 7.973713e+01
9.996950e+02 8.381637e+01
1.015860e+03 8.809732e+01
1.032290e+03 9.253655e+01
1.048990e+03 9.722595e+01
1.065960e+03 1.021834e+02
1.083200e+03 1.073925e+02
1.100720e+03 1.128667e+02
1.118520e+03 1.186192e+02
1.136610e+03 1.246650e+02
1.155000e+03 1.310210e+02
1.173680e+03 1.377019e+02
1.192660e+03 1.447194e+02
1.211950e+03 1.520968e+02
1.231550e+03 1.598517e+02
1.251470e+03 1.680365e+02
1.271720e+03 1.766891e+02
1.292290e+03 1.858493e+02
1.313190e+03 1.954804e+02
1.334430e+03 2.056101e+02
1.356010e+03 2.162663e+02
1.377940e+03 2.274736e+02
1.400230e+03 2.392641e+02
1.422880e+03 2.516650e+02
1.445890e+03 2.647079e+02
1.469280e+03 2.784426e+02
1.493040e+03 2.929126e+02
1.517190e+03 3.082441e+02
1.541730e+03 3.243927e+02
1.566670e+03 3.413871e+02
1.592010e+03 3.592725e+02
1.617760e+03 3.780964e+02
1.643920e+03 3.979014e+02
1.670510e+03 4.187496e+02
1.697530e+03 4.406896e+02
1.724990e+03 4.637828e+02
1.752890e+03 4.883262e+02
1.781240e+03 5.142580e+02
1.810050e+03 5.416414e+02
1.839320e+03 5.704795e+02
1.869070e+03 6.006330e+02
1.899300e+03 6.318406e+02
1.930020e+03 6.646717e+02
1.961240e+03 6.992079e+02
1.992960e+03 7.355374e+02
2.025200e+03 7.737580e+02
2.057950e+03 8.139587e+02
2.091240e+03 8.562543e+02
2.125060e+03 9.007417e+02
2.159430e+03 9.475449e+02
2.194360e+03 9.967788e+02
2.229850e+03 1.048568e+03
2.265920e+03 1.103054e+03
2.302570e+03 1.160369e+03
2.339810e+03 1.220660e+03
2.377660e+03 1.284086e+03
2.416110e+03 1.351288e+03
2.455190e+03 1.425152e+03
2.494900e+03 1.503053e+03
2.535260e+03 1.585215e+03
2.576260e+03 1.671861e+03
2.617930e+03 1.763251e+03
2.660270e+03 1.859810e+03
2.703300e+03 1.962074e+03
2.747030e+03 2.069953e+03
2.791460e+03 2.183768e+03
2.836610e+03 2.303834e+03
2.882490e+03 2.430503e+03
2.929110e+03 2.564504e+03
2.976480e+03 2.706260e+03
3.024630e+03 2.855861e+03
3.073550e+03 3.013738e+03
3.123260e+03 3.180336e+03
3.173780e+03 3.356148e+03
3.225110e+03 3.542021e+03
3.277270e+03 3.738374e+03
3.330280e+03 3.945611e+03
3.384150e+03 4.164340e+03
3.438880e+03 4.395181e+03
3.494500e+03 4.638838e+03
3.551020e+03 4.895650e+03
3.608460e+03 5.166693e+03
3.666820e+03 5.452685e+03
3.726130e+03 5.754539e+03
3.786400e+03 6.073131e+03
3.847640e+03 6.409223e+03
3.909870e+03 6.762122e+03
3.973110e+03 7.134436e+03
4.037380e+03 7.527268e+03
4.102680e+03 7.941673e+03
4.169030e+03 8.378911e+03
4.236460e+03 8.840017e+03
4.304980e+03 9.325651e+03
4.374620e+03 9.837882e+03
4.445370e+03 1.037829e+04
4.517270e+03 1.094841e+04
4.590330e+03 1.154985e+04
4.664580e+03 1.218362e+04
4.740030e+03 1.285124e+04
4.816690e+03 1.355532e+04
4.894600e+03 1.429806e+04
4.973770e+03 1.508147e+04
5.054210e+03 1.590774e+04
5.135960e+03 1.677858e+04
5.219030e+03 1.769657e+04
5.303440e+03 1.866472e+04
5.389220e+03 1.968583e+04
5.476390e+03 2.076292e+04
5.564970e+03 2.189883e+04
5.654980e+03 2.309556e+04
5.746440e+03 2.435723e+04
5.839390e+03 2.568782e+04
5.933830e+03 2.709116e+04
6.029810e+03 2.857113e+04
6.127330e+03 3.013193e+04
6.226440e+03 3.177696e+04
6.327150e+03 3.351167e+04
6.429480e+03 3.534107e+04
6.533480e+03 3.727052e+04
6.639150e+03 3.930512e+04
6.746540e+03 4.145070e+04
6.855650e+03 4.371248e+04
6.966540e+03 4.609779e+04
7.079220e+03 4.861344e+04
7.193720e+03 5.126608e+04
7.310070e+03 5.406372e+04
7.428310e+03 5.701417e+04
7.548450e+03 6.012642e+04
7.670540e+03 6.340878e+04
7.794610e+03 6.687013e+04
7.920680e+03 7.052052e+04
8.048790e+03 7.437017e+04
8.178980e+03 7.843162e+04
8.311260e+03 8.271584e+04
8.445690e+03 8.723401e+04
8.582290e+03 9.199949e+04
8.721110e+03 9.702467e+04
8.862160e+03 1.023246e+05
9.005500e+03 1.079190e+05
9.151160e+03 1.138219e+05
9.299170e+03 1.200471e+05
9.449580e+03 1.266139e+05
9.602420e+03 1.335390e+05
9.757730e+03 1.408428e+05
9.915550e+03 1.485611e+05
1.007590e+04 1.566959e+05
1.023890e+04 1.652801e+05
1.040450e+04 1.743363e+05
1.057280e+04 1.838934e+05
1.074380e+04 1.939773e+05
1.091760e+04 2.046187e+05
1.109420e+04 2.158472e+05
1.127360e+04 2.276943e+05
1.145590e+04 2.401990e+05
1.164120e+04 2.533950e+05
1.182950e+04 2.673210e+05
1.202080e+04 2.820185e+05
1.221530e+04 2.975330e+05
1.241280e+04 3.139050e+05
1.261360e+04 3.311856e+05
1.281760e+04 3.494269e+05
1.302500e+04 3.686815e+05
1.323560e+04 3.890033e+05
1.344970e+04 4.104580e+05
1.366720e+04 4.331026e+05
1.388830e+04 4.570099e+05
1.411290e+04 4.822453e+05
1.434120e+04 5.088882e+05
1.457310e+04 5.370118e+05
1.480890e+04 5.667078e+05
1.504840e+04 5.980548e+05
1.529180e+04 6.311498e+05
1.553910e+04 6.660880e+05
1.579040e+04 7.029762e+05
1.604580e+04 7.419220e+05
1.630540e+04 7.830455e+05
1.656910e+04 8.264557e+05
1.683710e+04 8.722911e+05
1.710940e+04 9.206786e+05
1.738610e+04 9.717659e+05
1.766740e+04 1.025709e+06
1.795310e+04 1.082649e+06
1.824350e+04 1.142767e+06
1.853860e+04 1.206232e+06
1.883840e+04 1.273226e+06
1.914310e+04 1.343949e+06
1.945270e+04 1.418600e+06
1.976740e+04 1.497404e+06
2.008710e+04 1.585720e+06
2.041200e+04 1.675920e+06
2.074210e+04 1.771209e+06
2.107760e+04 1.871897e+06
2.141850e+04 1.978275e+06
2.176500e+04 2.090673e+06
2.211700e+04 2.209415e+06
2.247470e+04 2.334864e+06
2.283820e+04 2.467418e+06
2.320760e+04 2.607462e+06
2.358300e+04 2.755434e+06
2.396440e+04 2.911755e+06
2.435200e+04 3.076920e+06
2.474590e+04 3.251439e+06
2.514620e+04 3.435818e+06
2.555290e+04 3.630628e+06
2.596620e+04 3.836448e+06
2.638610e+04 4.053903e+06
2.681290e+04 4.283694e+06
2.724660e+04 4.526484e+06
2.768730e+04 4.782993e+06
2.813510e+04 5.054049e+06
2.859020e+04 5.340416e+06
2.905260e+04 5.643032e+06
2.952250e+04 5.962775e+06
3.000000e+04 6.300637e+06
