# material=Mn density=7.47
# Photon Energy [eV]  Attenuation Length [um]
1.000000e+01 9.247722e-03
1.016170e+01 9.219014e-03
1.032610e+01 9.190501e-03
1.049310e+01 9.161978e-03
1.066280e+01 9.133562e-03
1.083530e+01 9.105272e-03
1.101060e+01 9.077090e-03
1.118860e+01 9.048874e-03
1.136960e+01 9.020854e-03
1.155350e+01 8.992889e-03
1.174040e+01 8.965005e-03
1.193030e+01 8.937226e-03
1.212320e+01 8.914675e-03
1.231930e+01 8.892236e-03
1.251860e+01 8.869891e-03
1.272100e+01 8.847516e-03
1.292680e+01 8.825271e-03
1.313590e+01 8.803036e-03
1.334830e+01 8.780834e-03
1.356420e+01 8.758716e-03
1.378360e+01 8.736670e-03
1.400660e+01 8.714711e-03
1.423310e+01 8.692737e-03
1.446330e+01 8.670860e-03
1.469730e+01 8.649039e-03
1.493500e+01 8.627263e-03
1.517650e+01 8.605496e-03
1.542200e+01 8.583845e-03
1.567140e+01 8.562215e-03
1.592490e+01 8.540682e-03
1.618250e+01 8.519186e-03
1.644420e+01 8.497695e-03
1.671020e+01 8.484435e-03
1.698050e+01 8.506345e-03
1.725510e+01 8.528259e-03
1.753420e+01 8.550286e-03
1.781780e+01 8.572362e-03
1.810600e+01 8.594476e-03
1.839890e+01 8.616682e-03
1.869640e+01 8.638876e-03
1.899880e+01 8.661180e-03
1.930610e+01 8.751735e-03
1.961840e+01 8.854058e-03
1.993570e+01 8.957544e-03
2.025820e+01 9.062284e-03
2.058580e+01 9.168165e-03
2.091880e+01 9.275369e-03
2.125710e+01 9.383756e-03
2.160090e+01 9.493442e-03
2.195030e+01 9.604421e-03
2.230530e+01 9.716670e-03
2.266610e+01 9.902795e-03
2.303270e+01 1.013201e-02
2.340530e+01 1.036657e-02
2.378380e+01 1.060652e-02
2.416850e+01 1.085204e-02
2.455940e+01 1.110324e-02
2.495660e+01 1.136025e-02
2.536030e+01 1.162323e-02
2.577050e+01 1.190512e-02
2.618730e+01 1.227074e-02
2.661090e+01 1.264762e-02
2.704130e+01 1.303606e-02
2.747860e+01 1.343641e-02
2.792310e+01 1.384912e-02
2.837470e+01 1.427443e-02
2.883370e+01 1.471285e-02
2.930000e+01 1.516419e-02
2.977390e+01 1.562742e-02
3.025550e+01 1.610480e-02
3.074490e+01 1.659682e-02
3.124210e+01 1.710379e-02
3.174750e+01 1.762629e-02
3.226090e+01 1.816470e-02
3.278270e+01 1.871964e-02
3.331300e+01 1.929153e-02
3.385180e+01 1.987427e-02
3.439930e+01 2.044167e-02
3.495570e+01 2.102538e-02
3.552110e+01 2.162565e-02
3.609560e+01 2.224303e-02
3.667940e+01 2.287810e-02
3.727270e+01 2.353133e-02
3.787550e+01 2.436849e-02
3.848820e+01 2.524701e-02
3.911070e+01 2.615712e-02
3.974320e+01 2.709999e-02
4.038610e+01 2.807699e-02
4.103930e+01 2.908612e-02
4.170310e+01 3.010062e-02
4.237760e+01 3.115041e-02
4.306300e+01 3.223683e-02
4.375950e+01 3.321664e-02
4.446730e+01 3.322561e-02
4.518650e+01 3.323458e-02
4.591740e+01 3.324361e-02
4.666000e+01 2.971142e-02
4.741470e+01 2.544740e-02
4.818160e+01 2.179535e-02
4.896090e+01 1.866745e-02
4.975280e+01 1.400248e-02
5.055760e+01 1.056014e-02
5.137530e+01 1.003939e-02
5.220620e+01 9.667154e-03
5.305060e+01 9.801053e-03
5.390870e+01 1.004914e-02
5.478060e+01 1.057762e-02
5.566670e+01 1.113391e-02
5.656700e+01 1.172214e-02
5.748200e+01 1.234293e-02
5.841170e+01 1.299657e-02
5.935640e+01 1.368483e-02
6.031650e+01 1.433670e-02
6.129210e+01 1.495105e-02
6.228340e+01 1.559168e-02
6.329080e+01 1.625977e-02
6.431450e+01 1.695651e-02
6.535470e+01 1.768309e-02
6.641180e+01 1.844080e-02
6.748590e+01 1.918173e-02
6.857750e+01 1.993522e-02
6.968670e+01 2.071836e-02
7.081380e+01 2.153223e-02
7.195910e+01 2.237809e-02
7.312300e+01 2.325716e-02
7.430570e+01 2.402489e-02
7.550760e+01 2.468351e-02
7.672890e+01 2.536020e-02
7.796990e+01 2.605542e-02
7.923100e+01 2.676967e-02
8.051250e+01 2.750359e-02
8.181470e+01 2.821502e-02
8.313800e+01 2.884011e-02
8.448270e+01 2.947913e-02
8.584910e+01 3.013230e-02
8.723770e+01 3.079993e-02
8.864870e+01 3.148234e-02
9.008250e+01 3.217992e-02
9.153950e+01 3.289288e-02
9.302010e+01 3.362171e-02
9.452460e+01 3.436664e-02
9.605350e+01 3.512807e-02
9.760710e+01 3.547813e-02
9.918580e+01 3.578987e-02
1.007900e+02 3.610448e-02
1.024200e+02 3.642165e-02
1.040770e+02 3.674191e-02
1.057600e+02 3.706466e-02
1.074710e+02 3.739063e-02
1.092090e+02 3.771914e-02
1.109750e+02 3.805049e-02
1.127700e+02 3.836982e-02
1.145940e+02 3.868848e-02
1.164480e+02 3.900989e-02
1.183310e+02 3.933362e-02
1.202450e+02 3.966027e-02
1.221900e+02 3.998965e-02
1.241660e+02 4.032157e-02
1.261750e+02 4.065661e-02
1.282150e+02 4.099395e-02
1.302890e+02 4.135212e-02
1.323970e+02 4.179167e-02
1.345380e+02 4.223537e-02
1.367140e+02 4.268402e-02
1.389250e+02 4.313736e-02
1.411720e+02 4.359559e-02
1.434560e+02 4.405888e-02
1.457760e+02 4.452681e-02
1.481340e+02 4.499980e-02
1.505300e+02 4.563627e-02
1.529640e+02 4.646381e-02
1.554390e+02 4.730679e-02
1.579530e+02 4.816467e-02
1.605070e+02 4.903801e-02
1.631030e+02 4.992740e-02
1.657420e+02 5.083316e-02
1.684220e+02 5.175484e-02
1.711460e+02 5.269354e-02
1.739150e+02 5.364947e-02
1.767270e+02 5.463824e-02
1.795860e+02 5.568538e-02
1.824910e+02 5.675238e-02
1.854420e+02 5.783972e-02
1.884420e+02 5.894816e-02
1.914890e+02 6.007735e-02
1.945870e+02 6.122868e-02
1.977340e+02 6.240182e-02
2.009320e+02 6.361657e-02
2.041820e+02 6.486233e-02
2.074850e+02 6.613264e-02
2.108400e+02 6.742740e-02
2.142510e+02 6.874795e-02
2.177160e+02 7.009413e-02
2.212370e+02 7.146654e-02
2.248160e+02 7.286630e-02
2.284520e+02 7.429292e-02
2.321470e+02 7.574782e-02
2.359020e+02 7.723114e-02
2.397170e+02 7.874341e-02
2.435950e+02 8.083020e-02
2.475350e+02 8.328605e-02
2.515380e+02 8.581630e-02
2.556070e+02 8.842381e-02
2.597410e+02 9.111033e-02
2.639420e+02 9.387855e-02
2.682110e+02 9.673084e-02
2.725490e+02 9.966966e-02
2.769570e+02 1.026979e-01
2.814370e+02 1.058183e-01
2.859890e+02 1.090333e-01
2.906150e+02 1.123464e-01
2.953150e+02 1.159619e-01
3.000920e+02 1.197654e-01
3.049450e+02 1.236932e-01
3.098780e+02 1.277503e-01
3.148900e+02 1.319404e-01
3.199830e+02 1.362678e-01
3.251580e+02 1.407366e-01
3.304180e+02 1.453527e-01
3.357620e+02 1.501199e-01
3.411920e+02 1.550433e-01
3.467110e+02 1.601284e-01
3.523190e+02 1.653804e-01
3.580170e+02 1.708216e-01
3.638080e+02 1.764498e-01
3.696920e+02 1.822630e-01
3.756720e+02 1.882687e-01
3.817480e+02 1.944710e-01
3.879220e+02 2.008787e-01
3.941970e+02 2.074972e-01
4.005730e+02 2.143341e-01
4.070520e+02 2.213959e-01
4.136350e+02 2.286900e-01
4.203260e+02 2.365247e-01
4.271240e+02 2.453489e-01
4.340320e+02 2.545031e-01
4.410520e+02 2.639984e-01
4.481860e+02 2.738480e-01
4.554350e+02 2.840651e-01
4.628020e+02 2.946636e-01
4.702870e+02 3.056571e-01
4.778940e+02 3.170613e-01
4.856230e+02 3.282043e-01
4.934780e+02 3.393313e-01
5.014590e+02 3.508362e-01
5.095700e+02 3.627300e-01
5.178120e+02 3.750275e-01
5.261870e+02 3.877421e-01
5.346980e+02 4.008777e-01
5.433460e+02 4.141533e-01
5.521340e+02 4.278643e-01
5.610650e+02 4.424120e-01
5.701390e+02 4.576338e-01
5.793610e+02 4.733071e-01
5.887320e+02 4.894786e-01
5.982540e+02 5.061770e-01
6.079300e+02 5.234458e-01
6.177630e+02 5.413020e-01
6.277550e+02 5.597704e-01
6.379080e+02 5.788654e-01
6.386000e+02 5.801802e-01
6.388000e+02 6.726238e-02
6.482260e+02 6.942179e-02
6.587110e+02 7.186669e-02
6.693650e+02 7.439774e-02
6.801910e+02 7.701799e-02
6.911930e+02 7.973075e-02
7.023720e+02 8.253854e-02
7.137330e+02 8.551521e-02
7.252770e+02 8.865727e-02
7.370080e+02 9.222372e-02
7.489280e+02 9.371463e-02
7.610420e+02 9.362373e-02
7.733510e+02 9.353289e-02
7.858590e+02 9.538097e-02
7.985700e+02 9.894947e-02
8.114860e+02 1.029251e-01
8.246110e+02 1.070589e-01
8.379490e+02 1.113583e-01
8.515020e+02 1.157136e-01
8.652740e+02 1.201133e-01
8.792690e+02 1.245631e-01
8.934910e+02 1.291767e-01
9.079430e+02 1.339600e-01
9.226280e+02 1.389213e-01
9.375510e+02 1.441958e-01
9.527150e+02 1.497043e-01
9.681240e+02 1.554548e-01
9.837830e+02 1.614248e-01
9.996950e+02 1.676335e-01
1.015860e+03 1.740889e-01
1.032290e+03 1.808752e-01
1.048990e+03 1.879925e-01
1.065960e+03 1.954641e-01
1.083200e+03 2.032343e-01
1.100720e+03 2.113130e-01
1.118520e+03 2.197115e-01
1.136610e+03 2.284425e-01
1.155000e+03 2.375232e-01
1.173680e+03 2.469645e-01
1.192660e+03 2.567780e-01
1.211950e+03 2.669823e-01
1.231550e+03 2.775928e-01
1.251470e+03 2.886949e-01
1.271720e+03 3.003178e-01
1.292290e+03 3.125032e-01
1.313190e+03 3.251837e-01
1.334430e+03 3.383799e-01
1.356010e+03 3.521109e-01
1.377940e+03 3.664022e-01
1.400230e+03 3.812748e-01
1.422880e+03 3.967475e-01
1.445890e+03 4.128451e-01
1.469280e+03 4.296475e-01
1.493040e+03 4.472109e-01
1.517190e+03 4.658396e-01
1.541730e+03 4.852933e-01
1.566670e+03 5.055588e-01
1.592010e+03 5.266562e-01
1.617760e+03 5.486406e-01
1.643920e+03 5.715565e-01
1.670510e+03 5.954190e-01
1.697530e+03 6.202711e-01
1.724990e+03 6.461579e-01
1.752890e+03 6.736711e-01
1.781240e+03 7.025506e-01
1.810050e+03 7.328198e-01
1.839320e+03 7.643905e-01
1.869070e+03 7.973171e-01
1.899300e+03 8.316400e-01
1.930020e+03 8.674587e-01
1.961240e+03 9.048320e-01
1.992960e+03 9.438279e-01
2.025200e+03 9.839943e-01
2.057950e+03 1.026852e+00
2.091240e+03 1.071707e+00
2.125060e+03 1.118645e+00
2.159430e+03 1.167651e+00
2.194360e+03 1.218898e+00
2.229850e+03 1.272537e+00
2.265920e+03 1.328617e+00
2.302570e+03 1.387256e+00
2.339810e+03 1.448572e+00
2.377660e+03 1.512714e+00
2.416110e+03 1.579761e+00
2.455190e+03 1.649897e+00
2.494900e+03 1.723221e+00
2.535260e+03 1.799916e+00
2.576260e+03 1.880109e+00
2.617930e+03 1.963964e+00
2.660270e+03 2.051658e+00
2.703300e+03 2.143341e+00
2.747030e+03 2.239237e+00
2.791460e+03 2.339505e+00
2.836610e+03 2.444345e+00
2.882490e+03 2.553943e+00
2.929110e+03 2.668559e+00
2.976480e+03 2.788389e+00
3.024630e+03 2.913694e+00
3.073550e+03 3.044730e+00
3.123260e+03 3.181692e+00
3.173780e+03 3.324902e+00
3.225110e+03 3.474585e+00
3.277270e+03 3.631056e+00
3.330280e+03 3.794647e+00
3.384150e+03 3.965598e+00
3.438880e+03 4.144353e+00
3.494500e+03 4.331174e+00
3.551020e+03 4.526448e+00
3.608460e+03 4.730567e+00
3.666820e+03 4.943839e+00
3.726130e+03 5.166654e+00
3.786400e+03 5.399604e+00
3.847640e+03 5.642931e+00
3.909870e+03 5.897051e+00
3.973110e+03 6.162724e+00
4.037380e+03 6.440406e+00
4.102680e+03 6.730209e+00
4.169030e+03 7.033065e+00
4.236460e+03 7.349276e+00
4.304980e+03 7.679665e+00
4.374620e+03 8.024856e+00
4.445370e+03 8.384868e+00
4.517270e+03 8.761094e+00
4.590330e+03 9.153963e+00
4.664580e+03 9.563934e+00
4.740030e+03 9.992061e+00
4.816690e+03 1.043862e+01
4.894600e+03 1.090491e+01
4.973770e+03 1.139108e+01
5.054210e+03 1.189929e+01
5.135960e+03 1.242882e+01
5.219030e+03 1.298132e+01
5.303440e+03 1.355758e+01
5.389220e+03 1.415871e+01
5.476390e+03 1.478551e+01
5.564970e+03 1.543905e+01
5.654980e+03 1.612049e+01
5.746440e+03 1.683077e+01
5.839390e+03 1.757100e+01
5.933830e+03 1.834262e+01
6.029810e+03 1.914643e+01
6.127330e+03 1.998373e+01
6.226440e+03 2.085596e+01
6.327150e+03 2.176450e+01
6.429480e+03 2.271069e+01
6.533480e+03 2.369569e+01
6.538900e+03 2.374772e+01
6.539100e+03 2.948621e+00
6.639150e+03 3.060216e+00
6.746540e+03 3.182726e+00
6.855650e+03 3.310833e+00
6.966540e+03 3.444907e+00
7.079220e+03 3.585132e+00
7.193720e+03 3.731877e+00
7.310070e+03 3.885280e+00
7.428310e+03 4.045803e+00
7.548450e+03 4.213874e+00
7.670540e+03 4.389598e+00
7.794610e+03 4.573406e+00
7.920680e+03 4.765772e+00
8.048790e+03 4.967104e+00
8.178980e+03 5.177673e+00
8.311260e+03 5.398044e+00
8.445690e+03 5.628550e+00
8.582290e+03 5.869933e+00
8.721110e+03 6.122611e+00
8.862160e+03 6.386934e+00
9.005500e+03 6.663402e+00
9.151160e+03 6.952858e+00
9.299170e+03 7.255993e+00
9.449580e+03 7.573179e+00
9.602420e+03 7.905230e+00
9.757730e+03 8.252407e+00
9.915550e+03 8.616455e+00
1.007590e+04 8.997278e+00
1.023890e+04 9.395964e+00
1.040450e+04 9.813397e+00
1.057280e+04 1.025044e+01
1.074380e+04 1.070800e+01
1.091760e+04 1.118712e+01
1.109420e+04 1.168881e+01
1.127360e+04 1.221410e+01
1.145590e+04 1.276419e+01
1.164120e+04 1.334035e+01
1.182950e+04 1.394370e+01
1.202080e+04 1.457567e+01
1.221530e+04 1.523754e+01
1.241280e+04 1.593076e+01
1.261360e+04 1.665681e+01
1.281760e+04 1.741748e+01
1.302500e+04 1.821423e+01
1.323560e+04 1.904889e+01
1.344970e+04 1.992321e+01
1.366720e+04 2.083921e+01
1.388830e+04 2.179899e+01
1.411290e+04 2.280443e+01
1.434120e+04 2.385800e+01
1.457310e+04 2.496158e+01
1.480890e+04 2.611849e+01
1.504840e+04 2.733050e+01
1.529180e+04 2.860054e+01
1.553910e+04 2.993143e+01
1.579040e+04 3.132619e+01
1.604580e+04 3.278793e+01
1.630540e+04 3.432010e+01
1.656910e+04 3.592569e+01
1.683710e+04 3.760864e+01
1.710940e+04 3.937251e+01
1.738610e+04 4.122135e+01
1.766740e+04 4.315970e+01
1.795310e+04 4.519114e+01
1.824350e+04 4.732093e+01
1.853860e+04 4.955358e+01
1.883840e+04 5.189395e+01
1.914310e+04 5.434775e+01
1.945270e+04 5.692025e+01
1.976740e+04 5.961766e+01
2.008710e+04 6.244555e+01
2.041200e+04 6.541082e+01
2.074210e+04 6.851973e+01
2.107760e+04 7.177993e+01
2.141850e+04 7.519840e+01
2.176500e+04 7.878350e+01
2.211700e+04 8.254283e+01
2.247470e+04 8.648493e+01
2.283820e+04 9.061938e+01
2.320760e+04 9.495555e+01
2.358300e+04 9.950327e+01
2.396440e+04 1.042727e+02
2.435200e+04 1.092753e+02
2.474590e+04 1.145225e+02
2.514620e+04 1.200266e+02
2.555290e+04 1.257993e+02
2.596620e+04 1.318549e+02
2.638610e+04 1.382071e+02
2.681290e+04 1.448712e+02
2.724660e+04 1.518618e+02
2.768730e+04 1.591954e+02
2.813510e+04 1.668894e+02
2.859020e+04 1.749618e+02
2.905260e+04 1.834301e+02
2.952250e+04 1.923154e+02
3.000000e+04 2.016383e+02
