# material=Nb density=8.57
# Photon Energy [eV]  Attenuation Length [um]
5.000000e-01 1.413568e-02
5.079320e-01 1.413379e-02
5.159900e-01 1.413189e-02
5.241760e-01 1.413000e-02
5.324920e-01 1.412812e-02
5.409390e-01 1.412622e-02
5.495210e-01 1.412433e-02
5.582380e-01 1.415310e-02
5.670950e-01 1.418377e-02
5.760910e-01 1.421460e-02
5.852300e-01 1.424527e-02
5.945150e-01 1.427623e-02
6.039460e-01 1.430706e-02
6.135270e-01 1.433811e-02
6.232600e-01 1.436914e-02
6.331480e-01 1.440032e-02
6.431920e-01 1.443154e-02
6.533960e-01 1.446285e-02
6.637620e-01 1.449417e-02
6.742920e-01 1.452552e-02
6.849890e-01 1.455705e-02
6.958560e-01 1.458859e-02
7.068950e-01 1.462014e-02
7.181090e-01 1.465187e-02
7.295020e-01 1.468361e-02
7.410750e-01 1.471546e-02
7.528310e-01 1.474726e-02
7.647750e-01 1.477928e-02
7.769070e-01 1.481130e-02
7.892320e-01 1.484339e-02
8.017530e-01 1.487548e-02
8.144720e-01 1.490780e-02
8.273930e-01 1.494007e-02
8.405190e-01 1.497245e-02
8.538530e-01 1.501982e-02
8.673990e-01 1.510463e-02
8.811590e-01 1.518993e-02
8.951380e-01 1.527574e-02
9.093390e-01 1.536199e-02
9.237650e-01 1.544877e-02
9.384200e-01 1.553602e-02
9.533070e-01 1.562375e-02
9.684310e-01 1.571199e-02
9.837940e-01 1.580074e-02
9.994010e-01 1.588993e-02
1.015260e+00 1.597975e-02
1.031360e+00 1.606989e-02
1.047720e+00 1.616059e-02
1.064350e+00 1.625207e-02
1.081230e+00 1.634369e-02
1.098380e+00 1.643599e-02
1.115810e+00 1.652890e-02
1.133510e+00 1.662221e-02
1.151490e+00 1.671603e-02
1.169760e+00 1.681046e-02
1.188320e+00 1.690546e-02
1.207170e+00 1.700089e-02
1.226320e+00 1.709693e-02
1.245770e+00 1.719345e-02
1.265540e+00 1.729059e-02
1.285610e+00 1.738820e-02
1.306010e+00 1.748639e-02
1.326730e+00 1.758523e-02
1.347780e+00 1.768454e-02
1.369160e+00 1.784871e-02
1.390880e+00 1.802197e-02
1.412940e+00 1.819688e-02
1.435360e+00 1.837356e-02
1.458130e+00 1.851453e-02
1.481260e+00 1.858844e-02
1.504760e+00 1.866262e-02
1.528630e+00 1.873712e-02
1.552880e+00 1.881186e-02
1.577520e+00 1.888699e-02
1.602540e+00 1.896227e-02
1.627970e+00 1.903801e-02
1.653790e+00 1.908953e-02
1.680030e+00 1.899896e-02
1.706680e+00 1.890874e-02
1.733760e+00 1.881899e-02
1.761260e+00 1.872963e-02
1.789200e+00 1.864064e-02
1.817590e+00 1.855221e-02
1.846420e+00 1.846410e-02
1.875720e+00 1.820390e-02
1.905470e+00 1.792350e-02
1.935700e+00 1.764753e-02
1.966410e+00 1.737576e-02
1.997610e+00 1.710825e-02
2.029300e+00 1.684476e-02
2.061490e+00 1.658537e-02
2.094190e+00 1.632992e-02
2.127420e+00 1.607853e-02
2.161170e+00 1.583091e-02
2.195450e+00 1.558710e-02
2.230280e+00 1.534707e-02
2.265660e+00 1.511075e-02
2.301600e+00 1.487801e-02
2.338120e+00 1.464896e-02
2.375210e+00 1.441244e-02
2.412890e+00 1.417464e-02
2.451170e+00 1.394074e-02
2.490060e+00 1.371074e-02
2.529560e+00 1.348449e-02
2.569690e+00 1.326201e-02
2.610460e+00 1.304322e-02
2.651870e+00 1.283286e-02
2.693940e+00 1.272868e-02
2.736680e+00 1.262537e-02
2.780090e+00 1.252285e-02
2.824190e+00 1.242116e-02
2.869000e+00 1.235414e-02
2.914510e+00 1.233361e-02
2.960750e+00 1.231315e-02
3.007720e+00 1.229271e-02
3.055430e+00 1.227225e-02
3.103910e+00 1.225191e-02
3.153150e+00 1.223156e-02
3.203170e+00 1.221124e-02
3.253990e+00 1.219097e-02
3.305610e+00 1.217072e-02
3.358050e+00 1.215050e-02
3.411320e+00 1.213032e-02
3.465440e+00 1.211018e-02
3.520420e+00 1.206018e-02
3.576270e+00 1.195974e-02
3.633000e+00 1.186013e-02
3.690640e+00 1.176138e-02
3.749180e+00 1.154093e-02
3.808660e+00 1.130172e-02
3.869080e+00 1.106745e-02
3.930460e+00 1.083804e-02
3.992820e+00 1.061340e-02
4.056160e+00 1.032847e-02
4.120510e+00 1.004305e-02
4.185880e+00 9.765561e-03
4.252280e+00 9.445652e-03
4.319740e+00 9.123058e-03
4.388270e+00 8.811551e-03
4.457890e+00 8.665971e-03
4.528610e+00 8.554291e-03
4.600450e+00 8.444072e-03
4.673440e+00 8.335273e-03
4.747580e+00 8.227866e-03
4.822890e+00 8.094927e-03
4.899410e+00 7.903296e-03
4.977130e+00 7.716167e-03
5.056090e+00 7.533520e-03
5.136300e+00 7.355131e-03
5.217780e+00 7.181026e-03
5.300560e+00 7.011015e-03
5.384650e+00 6.845026e-03
5.470070e+00 6.738098e-03
5.556850e+00 6.644893e-03
5.645010e+00 6.600020e-03
5.734560e+00 6.600859e-03
5.825530e+00 6.601685e-03
5.917950e+00 6.602560e-03
6.011840e+00 6.610492e-03
6.107210e+00 6.668114e-03
6.204100e+00 6.726240e-03
6.302520e+00 6.784888e-03
6.402500e+00 6.844016e-03
6.504070e+00 6.903664e-03
6.607260e+00 6.963872e-03
6.712080e+00 7.024575e-03
6.818560e+00 7.085811e-03
6.926730e+00 7.147592e-03
7.036620e+00 7.178068e-03
7.148250e+00 7.144718e-03
7.261650e+00 7.111500e-03
7.376850e+00 7.078425e-03
7.493880e+00 7.045525e-03
7.612760e+00 7.025257e-03
7.733530e+00 7.110371e-03
7.856220e+00 7.196515e-03
7.980850e+00 7.283719e-03
8.107460e+00 7.427635e-03
8.236080e+00 7.584661e-03
8.366740e+00 7.744964e-03
8.499470e+00 7.908694e-03
8.634310e+00 8.075873e-03
8.771290e+00 8.246598e-03
8.910440e+00 8.420909e-03
9.051800e+00 8.598917e-03
9.195400e+00 8.780694e-03
9.341270e+00 8.947446e-03
9.489470e+00 9.068426e-03
9.640010e+00 9.191013e-03
9.792940e+00 9.315308e-03
9.948300e+00 9.400267e-03
1.010610e+01 9.388832e-03
1.026640e+01 9.241745e-03
1.042930e+01 9.073862e-03
1.059480e+01 8.805341e-03
1.076280e+01 8.544610e-03
1.093360e+01 8.291740e-03
1.110700e+01 8.046256e-03
1.128320e+01 7.808089e-03
1.146220e+01 7.614932e-03
1.164410e+01 7.497089e-03
1.182880e+01 7.390791e-03
1.201650e+01 7.338924e-03
1.220710e+01 7.287375e-03
1.240080e+01 7.236217e-03
1.259750e+01 7.185396e-03
1.279730e+01 7.057599e-03
1.300040e+01 6.931183e-03
1.320660e+01 6.806965e-03
1.341610e+01 6.681173e-03
1.362890e+01 6.512627e-03
1.384520e+01 6.348381e-03
1.406480e+01 6.188229e-03
1.428790e+01 6.032117e-03
1.451460e+01 5.901931e-03
1.474490e+01 5.795805e-03
1.497880e+01 5.691582e-03
1.521640e+01 5.594171e-03
1.545780e+01 5.564988e-03
1.570300e+01 5.535945e-03
1.595210e+01 5.560177e-03
1.620520e+01 5.619074e-03
1.646230e+01 5.678590e-03
1.672350e+01 5.738753e-03
1.698880e+01 5.862841e-03
1.725830e+01 6.016265e-03
1.753210e+01 6.173697e-03
1.781020e+01 6.335247e-03
1.809270e+01 6.520836e-03
1.837980e+01 6.754207e-03
1.867140e+01 6.995913e-03
1.896760e+01 7.246251e-03
1.920000e+01 7.446095e-03
1.940000e+01 7.479510e-03
1.970780e+01 7.731035e-03
2.002040e+01 7.991002e-03
2.033800e+01 8.349161e-03
2.066070e+01 8.847474e-03
2.098840e+01 9.375490e-03
2.132140e+01 1.007261e-02
2.165970e+01 1.075490e-02
2.180000e+01 1.103881e-02
2.200000e+01 1.120849e-02
2.234900e+01 1.209970e-02
2.270360e+01 1.261740e-02
2.306370e+01 1.322141e-02
2.342960e+01 1.456902e-02
2.380130e+01 1.605404e-02
2.417890e+01 1.769040e-02
2.456250e+01 1.949355e-02
2.495220e+01 2.148050e-02
2.505000e+01 2.200515e-02
2.543000e+01 2.362045e-02
2.583000e+01 2.547107e-02
2.623980e+01 2.890788e-02
2.624000e+01 2.890983e-02
2.638000e+01 2.860858e-02
2.666000e+01 2.945507e-02
2.695000e+01 3.092755e-02
2.737750e+01 3.238824e-02
2.740000e+01 3.246615e-02
2.755000e+01 3.247436e-02
2.798710e+01 3.363502e-02
2.843110e+01 3.483704e-02
2.888210e+01 3.595693e-02
2.934030e+01 3.613120e-02
2.952000e+01 3.619901e-02
2.969000e+01 3.546090e-02
2.987000e+01 3.390681e-02
3.005000e+01 3.107911e-02
3.042000e+01 2.292701e-02
3.080000e+01 1.911412e-02
3.099000e+01 1.969489e-02
3.139000e+01 1.877940e-02
3.159000e+01 1.993443e-02
3.209120e+01 1.706688e-02
3.260030e+01 1.461179e-02
3.262000e+01 1.452477e-02
3.306000e+01 1.310763e-02
3.358450e+01 1.184403e-02
3.411730e+01 1.070223e-02
3.444000e+01 1.007254e-02
3.468000e+01 9.334423e-03
3.517000e+01 8.671282e-03
3.545800e+01 8.103344e-03
3.602050e+01 7.515292e-03
3.659200e+01 6.969874e-03
3.717250e+01 6.580440e-03
3.776220e+01 6.267352e-03
3.836120e+01 6.072053e-03
3.896980e+01 5.976024e-03
3.958800e+01 5.971197e-03
4.021610e+01 6.050985e-03
4.085410e+01 6.156112e-03
4.150220e+01 6.338673e-03
4.216060e+01 6.528011e-03
4.282940e+01 6.722965e-03
4.350890e+01 6.841257e-03
4.419910e+01 6.944569e-03
4.490030e+01 7.049497e-03
4.561260e+01 7.155966e-03
4.633620e+01 7.264048e-03
4.707130e+01 7.373769e-03
4.781810e+01 7.637177e-03
4.857670e+01 7.977984e-03
4.934730e+01 8.372318e-03
5.013020e+01 8.877929e-03
5.092540e+01 9.414034e-03
5.173330e+01 1.007645e-02
5.255410e+01 1.084714e-02
5.338780e+01 1.167678e-02
5.423470e+01 1.269964e-02
5.509510e+01 1.388364e-02
5.596920e+01 1.517806e-02
5.685710e+01 1.659315e-02
5.775910e+01 1.814013e-02
5.867540e+01 1.983138e-02
5.876000e+01 1.999388e-02
5.904000e+01 2.020194e-02
5.960000e+01 2.193525e-02
6.054550e+01 2.378940e-02
6.107000e+01 2.487112e-02
6.137000e+01 2.600465e-02
6.168000e+01 2.660895e-02
6.265850e+01 2.967871e-02
6.365250e+01 3.310251e-02
6.466230e+01 3.684148e-02
6.568820e+01 4.097379e-02
6.673020e+01 4.556938e-02
6.778890e+01 5.068058e-02
6.886430e+01 5.660876e-02
6.995680e+01 6.374781e-02
7.004000e+01 6.432211e-02
7.105000e+01 7.384372e-02
7.146000e+01 7.801054e-02
7.259370e+01 8.674087e-02
7.374530e+01 9.622141e-02
7.491520e+01 1.066347e-01
7.610370e+01 1.168039e-01
7.731100e+01 1.259136e-01
7.853750e+01 1.357344e-01
7.978340e+01 1.463206e-01
8.104910e+01 1.560714e-01
8.233490e+01 1.661451e-01
8.364110e+01 1.768702e-01
8.496800e+01 1.882861e-01
8.631600e+01 1.966592e-01
8.768530e+01 2.045437e-01
8.907640e+01 2.127452e-01
9.048950e+01 2.171853e-01
9.192500e+01 2.213545e-01
9.338340e+01 2.256043e-01
9.486480e+01 2.271595e-01
9.636980e+01 2.283459e-01
9.789860e+01 2.295384e-01
9.945170e+01 2.307376e-01
1.010290e+02 2.319428e-01
1.026320e+02 2.328876e-01
1.042600e+02 2.316082e-01
1.059140e+02 2.303350e-01
1.075950e+02 2.290714e-01
1.093020e+02 2.278126e-01
1.110360e+02 2.271648e-01
1.127970e+02 2.267077e-01
1.145860e+02 2.262507e-01
1.164040e+02 2.257943e-01
1.182510e+02 2.253406e-01
1.201270e+02 2.248883e-01
1.220330e+02 2.244363e-01
1.239690e+02 2.239850e-01
1.259350e+02 2.235332e-01
1.279330e+02 2.230834e-01
1.299630e+02 2.221631e-01
1.320240e+02 2.210800e-01
1.341190e+02 2.200036e-01
1.362470e+02 2.189317e-01
1.384080e+02 2.178641e-01
1.406040e+02 2.168037e-01
1.428340e+02 2.169301e-01
1.451000e+02 2.181773e-01
1.474020e+02 2.194320e-01
1.497410e+02 2.206950e-01
1.521160e+02 2.219630e-01
1.545290e+02 2.232384e-01
1.569810e+02 2.245232e-01
1.594710e+02 2.258141e-01
1.620010e+02 2.271123e-01
1.645710e+02 2.284181e-01
1.671820e+02 2.297313e-01
1.698340e+02 2.310525e-01
1.725290e+02 2.323812e-01
1.752660e+02 2.337179e-01
1.780460e+02 2.350610e-01
1.808710e+02 2.364124e-01
1.837400e+02 2.377714e-01
1.866550e+02 2.393947e-01
1.896160e+02 2.410479e-01
1.926240e+02 2.427124e-01
1.956800e+02 2.443888e-01
1.987840e+02 2.460764e-01
2.006100e+02 2.470630e-01
2.012600e+02 2.118071e-01
2.019200e+02 2.129471e-01
2.032400e+02 2.256609e-01
2.039100e+02 2.118338e-01
2.045800e+02 2.083764e-01
2.073200e+02 2.118801e-01
2.087100e+02 2.054049e-01
2.108400e+02 2.000691e-01
2.141850e+02 1.716601e-01
2.175830e+02 1.476533e-01
2.210340e+02 1.404631e-01
2.245410e+02 1.259582e-01
2.262300e+02 1.179553e-01
2.296900e+02 9.883132e-02
2.304400e+02 1.037803e-01
2.340960e+02 8.484295e-02
2.375000e+02 7.052731e-02
2.402600e+02 6.393443e-02
2.440500e+02 5.966147e-02
2.459900e+02 5.727789e-02
2.498920e+02 5.492729e-02
2.509600e+02 5.430762e-02
2.540500e+02 5.416149e-02
2.561500e+02 5.205678e-02
2.602140e+02 5.007154e-02
2.604500e+02 4.995948e-02
2.615500e+02 4.817917e-02
2.637800e+02 4.717198e-02
2.660400e+02 4.687077e-02
2.702610e+02 4.544872e-02
2.730700e+02 4.453783e-02
2.755000e+02 4.413860e-02
2.798710e+02 4.299324e-02
2.817600e+02 4.251279e-02
2.843500e+02 4.235682e-02
2.888610e+02 4.206204e-02
2.934440e+02 4.176945e-02
2.980990e+02 4.249286e-02
3.028280e+02 4.361754e-02
3.076320e+02 4.338010e-02
3.125120e+02 4.338831e-02
3.174700e+02 4.361898e-02
3.225070e+02 4.375450e-02
3.276230e+02 4.387899e-02
3.328200e+02 4.415563e-02
3.381000e+02 4.443395e-02
3.434640e+02 4.458800e-02
3.489130e+02 4.418697e-02
3.544480e+02 4.378947e-02
3.562400e+02 4.366286e-02
3.583000e+02 4.288461e-02
3.603800e+02 3.967912e-02
3.624900e+02 3.433283e-02
3.646300e+02 3.679718e-02
3.667800e+02 4.154098e-02
3.689600e+02 4.303155e-02
3.748130e+02 4.175796e-02
3.756700e+02 4.157655e-02
3.779700e+02 3.993569e-02
3.826300e+02 4.440554e-02
3.850100e+02 4.465198e-02
3.874100e+02 4.382856e-02
3.935560e+02 4.445438e-02
3.997990e+02 4.505467e-02
4.061420e+02 4.560947e-02
4.125850e+02 4.647543e-02
4.191300e+02 4.801809e-02
4.257800e+02 4.949910e-02
4.325340e+02 5.050650e-02
4.393960e+02 5.153458e-02
4.463670e+02 5.258366e-02
4.534480e+02 5.365410e-02
4.606420e+02 5.383378e-02
4.617400e+02 5.384656e-02
4.643400e+02 5.352299e-02
4.717060e+02 5.391851e-02
4.759300e+02 5.414404e-02
4.786800e+02 5.442685e-02
4.862740e+02 5.649334e-02
4.939880e+02 5.820051e-02
5.018250e+02 5.952949e-02
5.019400e+02 5.954889e-02
5.050100e+02 6.078676e-02
5.130220e+02 6.162417e-02
5.211600e+02 6.247296e-02
5.294280e+02 6.333352e-02
5.378270e+02 6.486779e-02
5.425600e+02 6.591355e-02
5.473600e+02 6.705766e-02
5.522400e+02 6.858703e-02
5.610010e+02 7.184756e-02
5.635400e+02 7.281123e-02
5.713900e+02 7.671807e-02
5.804550e+02 7.867240e-02
5.896630e+02 8.067634e-02
5.990180e+02 8.273175e-02
6.085210e+02 8.483926e-02
6.181740e+02 8.700006e-02
6.279810e+02 8.921662e-02
6.379440e+02 9.176458e-02
6.480640e+02 9.462407e-02
6.583450e+02 9.757296e-02
6.687900e+02 1.006132e-01
6.793990e+02 1.037487e-01
6.901780e+02 1.069813e-01
7.011270e+02 1.103152e-01
7.122500e+02 1.137528e-01
7.235490e+02 1.172975e-01
7.350270e+02 1.209522e-01
7.466880e+02 1.247217e-01
7.585340e+02 1.286082e-01
7.705670e+02 1.326156e-01
7.827920e+02 1.367485e-01
7.952100e+02 1.410264e-01
8.078260e+02 1.458512e-01
8.206410e+02 1.508416e-01
8.336600e+02 1.560027e-01
8.468850e+02 1.613393e-01
8.603210e+02 1.668592e-01
8.739690e+02 1.725683e-01
8.878340e+02 1.784727e-01
9.019190e+02 1.848435e-01
9.162270e+02 1.917370e-01
9.307620e+02 1.991465e-01
9.455280e+02 2.088538e-01
9.605280e+02 2.166968e-01
9.757660e+02 2.247056e-01
9.912460e+02 2.330110e-01
1.006970e+03 2.416237e-01
1.022950e+03 2.505572e-01
1.039170e+03 2.598163e-01
1.055660e+03 2.694196e-01
1.072410e+03 2.793795e-01
1.089420e+03 2.897052e-01
1.106700e+03 3.004127e-01
1.124260e+03 3.115179e-01
1.142100e+03 3.230333e-01
1.160210e+03 3.349709e-01
1.178620e+03 3.473534e-01
1.197320e+03 3.601932e-01
1.216310e+03 3.735055e-01
1.235610e+03 3.873123e-01
1.255210e+03 4.016282e-01
1.275120e+03 4.242939e-01
1.295350e+03 4.553667e-01
1.315900e+03 4.727233e-01
1.336780e+03 4.907414e-01
1.357990e+03 5.094467e-01
1.379530e+03 5.288628e-01
1.401410e+03 5.490178e-01
1.423650e+03 5.699459e-01
1.446230e+03 5.916665e-01
1.469170e+03 6.142162e-01
1.492480e+03 6.376282e-01
1.516160e+03 6.627325e-01
1.540210e+03 6.889702e-01
1.564650e+03 7.162493e-01
1.589470e+03 7.446062e-01
1.614680e+03 7.740842e-01
1.640300e+03 8.047319e-01
1.666320e+03 8.365929e-01
1.692760e+03 8.697165e-01
1.719610e+03 9.041470e-01
1.746890e+03 9.399433e-01
1.774600e+03 9.771557e-01
1.802760e+03 1.015846e+00
1.831360e+03 1.056066e+00
1.860410e+03 1.097876e+00
1.889920e+03 1.141338e+00
1.919910e+03 1.186532e+00
1.950360e+03 1.233503e+00
1.981300e+03 1.282338e+00
2.012740e+03 1.333114e+00
2.044670e+03 1.385892e+00
2.077100e+03 1.440757e+00
2.110060e+03 1.497805e+00
2.143530e+03 1.557100e+00
2.177540e+03 1.618754e+00
2.212080e+03 1.682836e+00
2.247170e+03 1.749459e+00
2.282820e+03 1.818725e+00
2.319040e+03 1.889310e+00
2.355830e+03 1.959980e+00
2.367000e+03 1.981727e+00
2.370400e+03 1.988379e+00
2.370600e+03 5.364368e-01
2.398000e+03 5.523056e-01
2.436040e+03 5.748030e-01
2.461000e+03 5.898607e-01
2.464600e+03 5.920510e-01
2.464800e+03 4.296836e-01
2.493000e+03 4.414857e-01
2.532550e+03 4.583481e-01
2.572730e+03 4.758594e-01
2.613540e+03 4.940344e-01
2.655000e+03 5.129059e-01
2.695000e+03 5.315019e-01
2.697600e+03 5.327243e-01
2.697800e+03 4.668398e-01
2.730000e+03 4.808974e-01
2.773310e+03 5.002032e-01
2.817310e+03 5.202870e-01
2.862000e+03 5.411713e-01
2.907400e+03 5.628983e-01
2.953530e+03 5.854962e-01
3.000380e+03 6.090013e-01
3.047980e+03 6.334506e-01
3.096340e+03 6.588834e-01
3.145460e+03 6.853332e-01
3.195360e+03 7.128509e-01
3.246050e+03 7.414631e-01
3.297550e+03 7.712314e-01
3.349860e+03 8.021966e-01
3.403000e+03 8.343976e-01
3.456990e+03 8.678981e-01
3.511830e+03 9.027443e-01
3.567540e+03 9.389805e-01
3.624140e+03 9.766769e-01
3.681630e+03 1.015887e+00
3.740040e+03 1.056671e+00
3.799370e+03 1.100164e+00
3.859650e+03 1.147317e+00
3.920880e+03 1.196484e+00
3.983080e+03 1.247760e+00
4.046270e+03 1.301236e+00
4.110460e+03 1.357000e+00
4.175670e+03 1.415155e+00
4.241910e+03 1.475799e+00
4.309210e+03 1.539051e+00
4.377570e+03 1.605006e+00
4.447020e+03 1.673790e+00
4.517560e+03 1.745522e+00
4.589230e+03 1.820328e+00
4.662040e+03 1.898341e+00
4.736000e+03 1.979701e+00
4.811130e+03 2.064540e+00
4.887450e+03 2.153012e+00
4.964990e+03 2.245282e+00
5.043760e+03 2.341512e+00
5.123770e+03 2.441852e+00
5.205060e+03 2.546501e+00
5.287630e+03 2.655640e+00
5.371510e+03 2.769445e+00
5.456730e+03 2.888129e+00
5.543300e+03 3.011910e+00
5.631240e+03 3.140988e+00
5.720570e+03 3.275591e+00
5.811320e+03 3.415968e+00
5.903520e+03 3.562370e+00
5.997170e+03 3.715035e+00
6.092310e+03 3.874237e+00
6.188960e+03 4.040276e+00
6.287150e+03 4.213430e+00
6.386890e+03 4.396516e+00
6.488210e+03 4.591863e+00
6.591140e+03 4.795905e+00
6.695700e+03 5.008989e+00
6.801930e+03 5.231562e+00
6.909830e+03 5.464024e+00
7.019450e+03 5.706799e+00
7.130810e+03 5.960375e+00
7.243940e+03 6.225224e+00
7.358860e+03 6.501829e+00
7.475600e+03 6.790728e+00
7.594190e+03 7.092467e+00
7.714670e+03 7.407627e+00
7.837060e+03 7.736774e+00
7.961390e+03 8.080536e+00
8.087690e+03 8.439579e+00
8.215990e+03 8.814567e+00
8.346330e+03 9.206250e+00
8.478740e+03 9.615328e+00
8.613250e+03 1.004257e+01
8.749890e+03 1.048879e+01
8.888700e+03 1.095486e+01
9.029720e+03 1.144159e+01
9.172970e+03 1.195001e+01
9.318490e+03 1.248096e+01
9.466320e+03 1.303558e+01
9.616500e+03 1.361476e+01
9.769050e+03 1.421966e+01
9.924030e+03 1.485155e+01
1.008150e+04 1.551152e+01
1.024140e+04 1.620068e+01
1.040390e+04 1.692060e+01
1.056890e+04 1.767236e+01
1.073660e+04 1.845761e+01
1.090690e+04 1.927781e+01
1.108000e+04 2.013451e+01
1.125570e+04 2.102887e+01
1.143430e+04 2.196335e+01
1.161570e+04 2.293931e+01
1.180000e+04 2.395876e+01
1.198720e+04 2.502318e+01
1.217730e+04 2.613494e+01
1.237050e+04 2.729637e+01
1.256680e+04 2.850920e+01
1.276610e+04 2.977600e+01
1.296860e+04 3.109891e+01
1.317440e+04 3.248100e+01
1.338340e+04 3.392414e+01
1.359570e+04 3.543146e+01
1.381140e+04 3.700582e+01
1.403050e+04 3.865006e+01
1.425310e+04 4.036753e+01
1.447920e+04 4.216117e+01
1.470890e+04 4.403447e+01
1.494220e+04 4.599104e+01
1.517930e+04 4.803474e+01
1.542010e+04 5.016900e+01
1.566470e+04 5.239824e+01
1.591320e+04 5.472642e+01
1.616570e+04 5.715820e+01
1.642210e+04 5.969768e+01
1.668270e+04 6.235069e+01
1.694730e+04 6.512091e+01
1.721620e+04 6.801449e+01
1.748930e+04 7.103667e+01
1.776680e+04 7.419329e+01
1.804860e+04 7.748969e+01
1.833490e+04 8.093277e+01
1.862580e+04 8.452894e+01
1.892130e+04 8.828495e+01
1.897200e+04 8.894000e+01
1.898290e+04 8.908090e+01
1.898310e+04 1.305065e+01
1.907700e+04 1.322215e+01
1.937960e+04 1.378441e+01
1.968710e+04 1.437061e+01
1.999940e+04 1.498168e+01
2.031670e+04 1.561880e+01
2.063900e+04 1.628293e+01
2.096640e+04 1.697530e+01
2.129900e+04 1.769715e+01
2.163690e+04 1.844972e+01
2.198020e+04 1.923431e+01
2.232890e+04 2.005219e+01
2.268310e+04 2.090486e+01
2.304300e+04 2.179383e+01
2.340850e+04 2.272056e+01
2.377990e+04 2.368682e+01
2.415710e+04 2.469394e+01
2.454040e+04 2.574411e+01
2.492970e+04 2.683872e+01
2.532520e+04 2.798009e+01
2.572690e+04 2.916985e+01
2.613510e+04 3.041028e+01
2.654970e+04 3.170345e+01
2.697090e+04 3.305161e+01
2.739870e+04 3.445701e+01
2.783340e+04 3.592240e+01
2.827500e+04 3.747323e+01
2.872350e+04 3.912119e+01
2.917920e+04 4.084175e+01
2.964210e+04 4.263774e+01
3.000000e+04 4.406032e+01
