# material=P density=1.823
# Photon Energy [eV]  Attenuation Length [um]
1.000000e+01 4.762847e-03
1.016170e+01 4.960675e-03
1.032610e+01 5.166762e-03
1.049310e+01 5.381378e-03
1.066280e+01 5.604911e-03
1.083530e+01 5.837760e-03
1.101060e+01 6.080284e-03
1.118860e+01 6.332801e-03
1.136960e+01 6.595892e-03
1.155350e+01 6.869888e-03
1.174040e+01 7.155279e-03
1.193030e+01 7.452508e-03
1.212320e+01 7.762037e-03
1.231930e+01 8.097456e-03
1.251860e+01 8.467492e-03
1.272100e+01 8.854344e-03
1.292680e+01 9.258972e-03
1.313590e+01 9.682075e-03
1.334830e+01 1.012965e-02
1.356420e+01 1.073383e-02
1.378360e+01 1.137406e-02
1.400660e+01 1.205252e-02
1.423310e+01 1.277137e-02
1.446330e+01 1.353311e-02
1.469730e+01 1.434034e-02
1.493500e+01 1.519568e-02
1.517650e+01 1.610197e-02
1.542200e+01 1.706241e-02
1.567140e+01 1.810470e-02
1.592490e+01 1.927668e-02
1.618250e+01 2.052452e-02
1.644420e+01 2.185311e-02
1.671020e+01 2.331218e-02
1.698050e+01 2.545736e-02
1.725510e+01 2.779972e-02
1.753420e+01 3.051774e-02
1.781780e+01 3.424569e-02
1.810600e+01 3.842871e-02
1.839890e+01 4.369691e-02
1.869640e+01 4.980435e-02
1.899880e+01 5.591791e-02
1.930610e+01 6.270206e-02
1.961840e+01 7.041456e-02
1.993570e+01 7.924597e-02
2.025820e+01 8.946354e-02
2.058580e+01 1.018457e-01
2.091880e+01 1.154509e-01
2.125710e+01 1.297232e-01
2.160090e+01 1.460480e-01
2.195030e+01 1.649603e-01
2.230530e+01 1.863207e-01
2.266610e+01 2.088892e-01
2.303270e+01 2.339428e-01
2.340530e+01 2.605839e-01
2.378380e+01 2.871375e-01
2.416850e+01 3.163982e-01
2.455940e+01 3.514121e-01
2.495660e+01 3.920716e-01
2.536030e+01 4.327917e-01
2.577050e+01 4.670792e-01
2.618730e+01 5.036993e-01
2.661090e+01 5.204175e-01
2.704130e+01 5.376920e-01
2.747860e+01 5.431880e-01
2.792310e+01 5.375065e-01
2.837470e+01 5.318827e-01
2.883370e+01 5.263218e-01
2.930000e+01 5.150149e-01
2.977390e+01 5.036131e-01
3.025550e+01 4.924636e-01
3.074490e+01 4.810152e-01
3.124210e+01 4.689475e-01
3.174750e+01 4.571837e-01
3.226090e+01 4.457124e-01
3.278270e+01 4.345319e-01
3.331300e+01 4.252391e-01
3.385180e+01 4.200831e-01
3.439930e+01 4.149901e-01
3.495570e+01 4.105998e-01
3.552110e+01 4.067095e-01
3.609560e+01 4.028572e-01
3.667940e+01 3.990409e-01
3.727270e+01 3.952608e-01
3.787550e+01 3.915154e-01
3.848820e+01 3.878082e-01
3.911070e+01 3.841340e-01
3.974320e+01 3.804936e-01
4.038610e+01 3.768907e-01
4.103930e+01 3.733200e-01
4.170310e+01 3.697834e-01
4.237760e+01 3.662798e-01
4.306300e+01 3.628102e-01
4.375950e+01 3.600754e-01
4.446730e+01 3.577470e-01
4.518650e+01 3.554340e-01
4.591740e+01 3.531361e-01
4.666000e+01 3.508525e-01
4.741470e+01 3.485841e-01
4.818160e+01 3.463302e-01
4.896090e+01 3.440910e-01
4.975280e+01 3.418665e-01
5.055760e+01 3.396567e-01
5.137530e+01 3.374605e-01
5.220620e+01 3.352778e-01
5.305060e+01 3.350596e-01
5.390870e+01 3.379156e-01
5.478060e+01 3.407948e-01
5.566670e+01 3.436997e-01
5.656700e+01 3.466288e-01
5.748200e+01 3.495830e-01
5.841170e+01 3.525622e-01
5.935640e+01 3.555667e-01
6.031650e+01 3.585973e-01
6.129210e+01 3.616534e-01
6.228340e+01 3.655182e-01
6.329080e+01 3.711551e-01
6.431450e+01 3.768798e-01
6.535470e+01 3.826915e-01
6.641180e+01 3.885940e-01
6.748590e+01 3.945867e-01
6.857750e+01 4.006727e-01
6.968670e+01 4.068519e-01
7.081380e+01 4.131264e-01
7.195910e+01 4.194977e-01
7.312300e+01 4.259674e-01
7.430570e+01 4.325369e-01
7.550760e+01 4.392077e-01
7.672890e+01 4.459815e-01
7.796990e+01 4.537427e-01
7.923100e+01 4.622529e-01
8.051250e+01 4.709230e-01
8.181470e+01 4.797545e-01
8.313800e+01 4.887529e-01
8.448270e+01 4.979196e-01
8.584910e+01 5.072582e-01
8.723770e+01 5.167729e-01
8.864870e+01 5.264644e-01
9.008250e+01 5.363386e-01
9.153950e+01 5.463976e-01
9.302010e+01 5.566466e-01
9.452460e+01 5.670861e-01
9.605350e+01 5.796961e-01
9.760710e+01 5.953954e-01
9.918580e+01 6.115201e-01
1.007900e+02 6.280819e-01
1.024200e+02 6.450902e-01
1.040770e+02 6.625632e-01
1.057600e+02 6.805047e-01
1.074710e+02 6.989377e-01
1.092090e+02 7.178653e-01
1.109750e+02 7.373035e-01
1.127700e+02 7.609937e-01
1.145940e+02 7.863007e-01
1.164480e+02 8.124522e-01
1.183310e+02 8.394675e-01
1.202450e+02 8.673853e-01
1.221900e+02 8.962311e-01
1.241660e+02 9.260327e-01
1.261750e+02 9.568340e-01
1.282150e+02 9.886481e-01
1.302890e+02 1.021527e+00
1.323970e+02 1.055503e+00
1.345380e+02 1.090602e+00
1.349000e+02 1.096592e+00
1.351000e+02 7.525803e-02
1.367140e+02 7.483525e-02
1.389250e+02 7.426772e-02
1.411720e+02 7.370469e-02
1.434560e+02 7.314624e-02
1.457760e+02 7.259146e-02
1.481340e+02 7.204128e-02
1.505300e+02 7.149509e-02
1.529640e+02 7.095266e-02
1.554390e+02 7.125452e-02
1.579530e+02 7.156970e-02
1.605070e+02 7.188594e-02
1.631030e+02 7.220389e-02
1.657420e+02 7.252364e-02
1.684220e+02 7.284414e-02
1.711460e+02 7.411240e-02
1.739150e+02 7.615073e-02
1.767270e+02 7.824427e-02
1.795860e+02 8.039613e-02
1.824910e+02 8.260685e-02
1.854420e+02 8.110069e-02
1.884420e+02 7.948184e-02
1.914890e+02 7.789470e-02
1.945870e+02 7.633975e-02
1.977340e+02 7.506040e-02
2.009320e+02 7.689027e-02
2.041820e+02 7.876473e-02
2.074850e+02 8.068487e-02
2.108400e+02 8.265103e-02
2.142510e+02 8.480244e-02
2.177160e+02 8.737304e-02
2.212370e+02 9.002256e-02
2.248160e+02 9.275255e-02
2.284520e+02 9.556477e-02
2.321470e+02 9.846249e-02
2.359020e+02 1.012646e-01
2.397170e+02 1.040720e-01
2.435950e+02 1.069579e-01
2.475350e+02 1.099233e-01
2.515380e+02 1.129708e-01
2.556070e+02 1.161033e-01
2.597410e+02 1.193222e-01
2.639420e+02 1.226305e-01
2.682110e+02 1.260304e-01
2.725490e+02 1.295247e-01
2.769570e+02 1.331157e-01
2.814370e+02 1.369444e-01
2.859890e+02 1.414245e-01
2.906150e+02 1.460512e-01
2.953150e+02 1.508289e-01
3.000920e+02 1.557635e-01
3.049450e+02 1.608588e-01
3.098780e+02 1.661213e-01
3.148900e+02 1.715559e-01
3.199830e+02 1.771682e-01
3.251580e+02 1.829638e-01
3.304180e+02 1.889496e-01
3.357620e+02 1.951310e-01
3.411920e+02 2.015141e-01
3.467110e+02 2.081067e-01
3.523190e+02 2.149147e-01
3.580170e+02 2.219451e-01
3.638080e+02 2.292063e-01
3.696920e+02 2.367043e-01
3.756720e+02 2.444482e-01
3.817480e+02 2.524446e-01
3.879220e+02 2.607726e-01
3.941970e+02 2.695888e-01
4.005730e+02 2.792530e-01
4.070520e+02 2.894893e-01
4.136350e+02 3.000905e-01
4.203260e+02 3.110856e-01
4.271240e+02 3.224850e-01
4.340320e+02 3.343064e-01
4.410520e+02 3.465592e-01
4.481860e+02 3.593147e-01
4.554350e+02 3.728183e-01
4.628020e+02 3.870484e-01
4.702870e+02 4.019450e-01
4.778940e+02 4.174284e-01
4.856230e+02 4.334926e-01
4.934780e+02 4.501682e-01
5.014590e+02 4.674762e-01
5.095700e+02 4.854695e-01
5.178120e+02 5.042014e-01
5.261870e+02 5.238021e-01
5.346980e+02 5.444796e-01
5.433460e+02 5.661359e-01
5.521340e+02 5.886464e-01
5.610650e+02 6.134259e-01
5.701390e+02 6.397484e-01
5.793610e+02 6.659061e-01
5.887320e+02 6.927145e-01
5.982540e+02 7.203272e-01
6.079300e+02 7.490384e-01
6.177630e+02 7.788994e-01
6.277550e+02 8.100545e-01
6.379080e+02 8.437440e-01
6.482260e+02 8.808389e-01
6.587110e+02 9.209478e-01
6.693650e+02 9.628935e-01
6.801910e+02 1.004018e+00
6.911930e+02 1.044689e+00
7.023720e+02 1.086338e+00
7.137330e+02 1.131316e+00
7.252770e+02 1.179356e+00
7.370080e+02 1.229432e+00
7.489280e+02 1.281631e+00
7.610420e+02 1.336083e+00
7.733510e+02 1.393142e+00
7.858590e+02 1.453734e+00
7.985700e+02 1.517909e+00
8.114860e+02 1.584907e+00
8.246110e+02 1.654872e+00
8.379490e+02 1.727931e+00
8.515020e+02 1.804010e+00
8.652740e+02 1.883208e+00
8.792690e+02 1.965659e+00
8.934910e+02 2.051696e+00
9.079430e+02 2.141515e+00
9.226280e+02 2.235263e+00
9.375510e+02 2.333487e+00
9.527150e+02 2.436086e+00
9.681240e+02 2.543262e+00
9.837830e+02 2.655121e+00
9.996950e+02 2.771863e+00
1.015860e+03 2.893665e+00
1.032290e+03 3.020678e+00
1.048990e+03 3.154358e+00
1.065960e+03 3.295157e+00
1.083200e+03 3.442245e+00
1.100720e+03 3.595843e+00
1.118520e+03 3.756228e+00
1.136610e+03 3.923894e+00
1.155000e+03 4.099043e+00
1.173680e+03 4.281898e+00
1.192660e+03 4.473039e+00
1.211950e+03 4.672732e+00
1.231550e+03 4.881427e+00
1.251470e+03 5.098904e+00
1.271720e+03 5.325703e+00
1.292290e+03 5.562063e+00
1.313190e+03 5.808876e+00
1.334430e+03 6.066644e+00
1.356010e+03 6.335845e+00
1.377940e+03 6.616962e+00
1.400230e+03 6.910586e+00
1.422880e+03 7.217227e+00
1.445890e+03 7.537464e+00
1.469280e+03 7.871362e+00
1.493040e+03 8.219104e+00
1.517190e+03 8.577929e+00
1.541730e+03 8.951806e+00
1.566670e+03 9.342089e+00
1.592010e+03 9.749221e+00
1.617760e+03 1.017413e+01
1.643920e+03 1.061759e+01
1.670510e+03 1.108046e+01
1.697530e+03 1.156345e+01
1.724990e+03 1.206745e+01
1.752890e+03 1.260519e+01
1.781240e+03 1.317103e+01
1.810050e+03 1.376551e+01
1.839320e+03 1.438691e+01
1.869070e+03 1.503648e+01
1.899300e+03 1.571529e+01
1.930020e+03 1.642485e+01
1.961240e+03 1.716640e+01
1.992960e+03 1.794121e+01
2.025200e+03 1.873917e+01
2.057950e+03 1.960220e+01
2.091240e+03 2.051106e+01
2.125060e+03 2.146670e+01
2.145400e+03 2.205500e+01
2.145600e+03 2.051504e+00
2.159430e+03 2.083352e+00
2.194360e+03 2.165038e+00
2.229850e+03 2.250459e+00
2.265920e+03 2.339768e+00
2.302570e+03 2.433123e+00
2.339810e+03 2.530807e+00
2.377660e+03 2.633027e+00
2.416110e+03 2.739857e+00
2.455190e+03 2.851649e+00
2.494900e+03 2.968572e+00
2.535260e+03 3.090865e+00
2.576260e+03 3.218698e+00
2.617930e+03 3.352493e+00
2.660270e+03 3.492219e+00
2.703300e+03 3.638711e+00
2.747030e+03 3.791822e+00
2.791460e+03 3.952008e+00
2.836610e+03 4.119540e+00
2.882490e+03 4.294767e+00
2.929110e+03 4.478271e+00
2.976480e+03 4.670058e+00
3.024630e+03 4.870712e+00
3.073550e+03 5.080406e+00
3.123260e+03 5.300272e+00
3.173780e+03 5.530329e+00
3.225110e+03 5.770845e+00
3.277270e+03 6.022555e+00
3.330280e+03 6.286051e+00
3.384150e+03 6.561754e+00
3.438880e+03 6.850319e+00
3.494500e+03 7.152299e+00
3.551020e+03 7.468324e+00
3.608460e+03 7.799158e+00
3.666820e+03 8.145444e+00
3.726130e+03 8.507911e+00
3.786400e+03 8.887370e+00
3.847640e+03 9.284571e+00
3.909870e+03 9.700369e+00
3.973110e+03 1.013560e+01
4.037380e+03 1.059131e+01
4.102680e+03 1.106846e+01
4.169030e+03 1.156793e+01
4.236460e+03 1.209096e+01
4.304980e+03 1.263878e+01
4.374620e+03 1.321233e+01
4.445370e+03 1.381285e+01
4.517270e+03 1.444169e+01
4.590330e+03 1.510007e+01
4.664580e+03 1.578994e+01
4.740030e+03 1.651214e+01
4.816690e+03 1.726862e+01
4.894600e+03 1.806079e+01
4.973770e+03 1.889105e+01
5.054210e+03 1.976016e+01
5.135960e+03 2.067042e+01
5.219030e+03 2.162390e+01
5.303440e+03 2.262312e+01
5.389220e+03 2.366967e+01
5.476390e+03 2.476594e+01
5.564970e+03 2.591483e+01
5.654980e+03 2.711780e+01
5.746440e+03 2.837888e+01
5.839390e+03 2.969890e+01
5.933830e+03 3.108311e+01
6.029810e+03 3.253440e+01
6.127330e+03 3.405217e+01
6.226440e+03 3.564504e+01
6.327150e+03 3.731256e+01
6.429480e+03 3.906074e+01
6.533480e+03 4.089454e+01
6.639150e+03 4.281360e+01
6.746540e+03 4.482646e+01
6.855650e+03 4.693488e+01
6.966540e+03 4.914257e+01
7.079220e+03 5.146200e+01
7.193720e+03 5.388812e+01
7.310070e+03 5.643257e+01
7.428310e+03 5.909998e+01
7.548450e+03 6.189602e+01
7.670540e+03 6.482664e+01
7.794610e+03 6.789829e+01
7.920680e+03 7.111862e+01
8.048790e+03 7.449539e+01
8.178980e+03 7.803472e+01
8.311260e+03 8.174592e+01
8.445690e+03 8.563542e+01
8.582290e+03 8.971503e+01
8.721110e+03 9.399142e+01
8.862160e+03 9.847635e+01
9.005500e+03 1.031779e+02
9.151160e+03 1.081080e+02
9.299170e+03 1.132779e+02
9.449580e+03 1.187006e+02
9.602420e+03 1.243862e+02
9.757730e+03 1.303482e+02
9.915550e+03 1.365984e+02
1.007590e+04 1.431565e+02
1.023890e+04 1.500349e+02
1.040450e+04 1.572496e+02
1.057280e+04 1.648169e+02
1.074380e+04 1.727544e+02
1.091760e+04 1.810808e+02
1.109420e+04 1.898159e+02
1.127360e+04 1.989771e+02
1.145590e+04 2.085892e+02
1.164120e+04 2.186737e+02
1.182950e+04 2.292545e+02
1.202080e+04 2.403545e+02
1.221530e+04 2.520045e+02
1.241280e+04 2.642252e+02
1.261360e+04 2.770499e+02
1.281760e+04 2.905085e+02
1.302500e+04 3.046349e+02
1.323560e+04 3.194550e+02
1.344970e+04 3.350121e+02
1.366720e+04 3.513406e+02
1.388830e+04 3.684801e+02
1.411290e+04 3.864688e+02
1.434120e+04 4.053559e+02
1.457310e+04 4.251795e+02
1.480890e+04 4.459942e+02
1.504840e+04 4.678497e+02
1.529180e+04 4.907941e+02
1.553910e+04 5.148856e+02
1.579040e+04 5.401819e+02
1.604580e+04 5.667532e+02
1.630540e+04 5.946603e+02
1.656910e+04 6.239639e+02
1.683710e+04 6.547521e+02
1.710940e+04 6.870862e+02
1.738610e+04 7.210546e+02
1.766740e+04 7.567489e+02
1.795310e+04 7.942457e+02
1.824350e+04 8.336498e+02
1.853860e+04 8.750572e+02
1.883840e+04 9.185718e+02
1.914310e+04 9.643094e+02
1.945270e+04 1.012383e+03
1.976740e+04 1.062928e+03
2.008710e+04 1.115911e+03
2.041200e+04 1.171743e+03
2.074210e+04 1.230404e+03
2.107760e+04 1.292051e+03
2.141850e+04 1.356829e+03
2.176500e+04 1.424911e+03
2.211700e+04 1.496449e+03
2.247470e+04 1.571634e+03
2.283820e+04 1.650653e+03
2.320760e+04 1.733707e+03
2.358300e+04 1.821005e+03
2.396440e+04 1.912759e+03
2.435200e+04 2.009207e+03
2.474590e+04 2.110596e+03
2.514620e+04 2.217183e+03
2.555290e+04 2.329222e+03
2.596620e+04 2.447014e+03
2.638610e+04 2.570848e+03
2.681290e+04 2.701055e+03
2.724660e+04 2.837961e+03
2.768730e+04 2.981910e+03
2.813510e+04 3.133280e+03
2.859020e+04 3.292446e+03
2.905260e+04 3.459829e+03
2.952250e+04 3.635863e+03
3.000000e+04 3.820984e+03
