# material=Pb density=11.34
# Photon Energy [eV]  Attenuation Length [um]
1.000000e+01 9.298012e-03
1.016170e+01 9.333538e-03
1.032610e+01 9.369270e-03
1.049310e+01 9.405078e-03
1.066280e+01 9.566700e-03
1.083530e+01 9.736637e-03
1.101060e+01 9.909584e-03
1.118860e+01 1.008548e-02
1.136960e+01 1.030878e-02
1.155350e+01 1.054000e-02
1.174040e+01 1.077646e-02
1.193030e+01 1.101469e-02
1.212320e+01 1.123895e-02
1.231930e+01 1.146786e-02
1.251860e+01 1.170145e-02
1.272100e+01 1.194190e-02
1.292680e+01 1.263439e-02
1.313590e+01 1.336706e-02
1.334830e+01 1.414205e-02
1.356420e+01 1.517177e-02
1.378360e+01 1.644573e-02
1.400660e+01 1.782681e-02
1.423310e+01 1.944866e-02
1.446330e+01 2.133432e-02
1.469730e+01 2.340287e-02
1.493500e+01 2.624656e-02
1.517650e+01 2.972670e-02
1.542200e+01 3.329151e-02
1.567140e+01 3.574281e-02
1.592490e+01 3.837480e-02
1.618250e+01 4.120043e-02
1.644420e+01 4.362932e-02
1.671020e+01 4.575708e-02
1.698050e+01 4.740516e-02
1.725510e+01 4.770585e-02
1.753420e+01 4.738498e-02
1.781780e+01 4.503643e-02
1.810600e+01 3.963883e-02
1.839890e+01 2.536979e-02
1.869640e+01 2.074665e-02
1.899880e+01 2.009576e-02
1.930610e+01 1.946524e-02
1.961840e+01 1.903478e-02
1.993570e+01 1.871647e-02
2.025820e+01 1.840355e-02
2.058580e+01 1.835277e-02
2.091880e+01 1.847828e-02
2.125710e+01 1.860452e-02
2.160090e+01 1.873166e-02
2.195030e+01 1.918674e-02
2.230530e+01 1.973691e-02
2.266610e+01 2.030288e-02
2.303270e+01 2.083446e-02
2.340530e+01 2.129817e-02
2.378380e+01 2.177205e-02
2.416850e+01 2.225657e-02
2.455940e+01 2.272519e-02
2.495660e+01 2.318432e-02
2.536030e+01 2.365282e-02
2.577050e+01 2.399278e-02
2.618730e+01 2.409594e-02
2.661090e+01 2.419966e-02
2.704130e+01 2.416587e-02
2.747860e+01 2.385059e-02
2.792310e+01 2.353947e-02
2.837470e+01 2.323241e-02
2.883370e+01 2.292936e-02
2.930000e+01 2.263020e-02
2.977390e+01 2.221534e-02
3.025550e+01 2.167665e-02
3.074490e+01 2.115105e-02
3.124210e+01 2.063810e-02
3.174750e+01 2.013769e-02
3.226090e+01 1.964931e-02
3.278270e+01 1.917286e-02
3.331300e+01 1.870798e-02
3.385180e+01 1.823411e-02
3.439930e+01 1.776987e-02
3.495570e+01 1.731749e-02
3.552110e+01 1.687662e-02
3.609560e+01 1.644695e-02
3.667940e+01 1.602825e-02
3.727270e+01 1.562021e-02
3.787550e+01 1.522255e-02
3.848820e+01 1.490774e-02
3.911070e+01 1.460493e-02
3.974320e+01 1.430842e-02
4.038610e+01 1.401789e-02
4.103930e+01 1.373326e-02
4.170310e+01 1.345436e-02
4.237760e+01 1.318120e-02
4.306300e+01 1.299097e-02
4.375950e+01 1.283156e-02
4.446730e+01 1.267406e-02
4.518650e+01 1.251856e-02
4.591740e+01 1.236492e-02
4.666000e+01 1.221314e-02
4.741470e+01 1.210458e-02
4.818160e+01 1.204125e-02
4.896090e+01 1.197830e-02
4.975280e+01 1.191564e-02
5.055760e+01 1.185334e-02
5.137530e+01 1.179134e-02
5.220620e+01 1.172964e-02
5.305060e+01 1.166825e-02
5.390870e+01 1.160722e-02
5.478060e+01 1.162467e-02
5.566670e+01 1.164605e-02
5.656700e+01 1.166744e-02
5.748200e+01 1.168893e-02
5.841170e+01 1.171038e-02
5.935640e+01 1.173191e-02
6.031650e+01 1.175352e-02
6.129210e+01 1.185911e-02
6.228340e+01 1.199426e-02
6.329080e+01 1.213091e-02
6.431450e+01 1.226912e-02
6.535470e+01 1.240895e-02
6.641180e+01 1.262628e-02
6.748590e+01 1.289423e-02
6.857750e+01 1.316781e-02
6.968670e+01 1.344727e-02
7.081380e+01 1.373257e-02
7.195910e+01 1.402161e-02
7.312300e+01 1.431580e-02
7.430570e+01 1.461608e-02
7.550760e+01 1.492267e-02
7.672890e+01 1.523567e-02
7.796990e+01 1.555528e-02
7.923100e+01 1.588160e-02
8.051250e+01 1.638844e-02
8.181470e+01 1.693905e-02
8.313800e+01 1.750815e-02
8.448270e+01 1.809641e-02
8.584910e+01 1.870439e-02
8.723770e+01 1.933278e-02
8.864870e+01 1.998233e-02
9.008250e+01 2.067692e-02
9.153950e+01 2.168138e-02
9.302010e+01 2.273472e-02
9.452460e+01 2.383911e-02
9.605350e+01 2.499726e-02
9.760710e+01 2.621158e-02
9.918580e+01 2.758758e-02
1.007900e+02 2.921151e-02
1.024200e+02 3.093115e-02
1.040770e+02 3.275212e-02
1.057600e+02 3.467996e-02
1.074710e+02 3.672135e-02
1.092090e+02 3.935841e-02
1.109750e+02 4.265890e-02
1.127700e+02 4.623629e-02
1.145940e+02 5.011337e-02
1.164480e+02 5.417172e-02
1.183310e+02 5.755008e-02
1.202450e+02 6.113953e-02
1.221900e+02 6.495281e-02
1.241660e+02 6.900355e-02
1.261750e+02 7.330774e-02
1.282150e+02 7.778933e-02
1.302890e+02 8.095653e-02
1.323970e+02 8.425284e-02
1.345380e+02 8.768283e-02
1.367140e+02 9.125262e-02
1.389250e+02 9.496767e-02
1.411720e+02 9.883393e-02
1.434560e+02 1.028582e-01
1.457760e+02 1.084906e-01
1.481340e+02 1.147986e-01
1.505300e+02 1.214734e-01
1.529640e+02 1.285358e-01
1.554390e+02 1.348139e-01
1.579530e+02 1.411295e-01
1.605070e+02 1.477403e-01
1.631030e+02 1.546615e-01
1.657420e+02 1.619080e-01
1.684220e+02 1.668244e-01
1.711460e+02 1.715976e-01
1.739150e+02 1.765085e-01
1.767270e+02 1.815581e-01
1.795860e+02 1.842511e-01
1.824910e+02 1.849542e-01
1.854420e+02 1.856587e-01
1.884420e+02 1.862878e-01
1.914890e+02 1.862882e-01
1.945870e+02 1.862907e-01
1.977340e+02 1.837396e-01
2.009320e+02 1.798488e-01
2.041820e+02 1.760407e-01
2.074850e+02 1.702971e-01
2.108400e+02 1.636014e-01
2.142510e+02 1.571701e-01
2.177160e+02 1.509908e-01
2.212370e+02 1.450546e-01
2.248160e+02 1.388983e-01
2.284520e+02 1.325791e-01
2.321470e+02 1.265471e-01
2.359020e+02 1.207900e-01
2.397170e+02 1.152944e-01
2.435950e+02 1.100492e-01
2.475350e+02 1.050426e-01
2.515380e+02 1.016783e-01
2.556070e+02 9.860564e-02
2.597410e+02 9.562461e-02
2.639420e+02 9.273505e-02
2.682110e+02 8.993206e-02
2.725490e+02 8.721372e-02
2.769570e+02 8.481159e-02
2.814370e+02 8.252219e-02
2.859890e+02 8.029503e-02
2.906150e+02 7.812779e-02
2.953150e+02 7.601855e-02
3.000920e+02 7.396689e-02
3.049450e+02 7.198086e-02
3.098780e+02 7.112539e-02
3.148900e+02 7.028004e-02
3.199830e+02 6.944456e-02
3.251580e+02 6.861924e-02
3.304180e+02 6.780378e-02
3.357620e+02 6.699808e-02
3.411920e+02 6.620145e-02
3.467110e+02 6.548750e-02
3.523190e+02 6.478127e-02
3.580170e+02 6.408246e-02
3.638080e+02 6.339118e-02
3.696920e+02 6.293422e-02
3.756720e+02 6.309606e-02
3.817480e+02 6.325819e-02
3.879220e+02 6.342060e-02
3.941970e+02 6.358391e-02
4.005730e+02 6.379289e-02
4.070520e+02 6.425929e-02
4.136350e+02 6.472900e-02
4.203260e+02 6.520246e-02
4.271240e+02 6.567929e-02
4.340320e+02 6.615955e-02
4.410520e+02 6.660044e-02
4.481860e+02 6.703590e-02
4.554350e+02 6.747399e-02
4.628020e+02 6.791520e-02
4.702870e+02 6.835910e-02
4.778940e+02 6.880583e-02
4.856230e+02 6.968687e-02
4.934780e+02 7.071427e-02
5.014590e+02 7.175657e-02
5.095700e+02 7.281452e-02
5.178120e+02 7.388794e-02
5.261870e+02 7.497704e-02
5.346980e+02 7.609688e-02
5.433460e+02 7.732359e-02
5.521340e+02 7.857009e-02
5.610650e+02 7.983681e-02
5.701390e+02 8.112374e-02
5.793610e+02 8.243159e-02
5.887320e+02 8.376051e-02
5.982540e+02 8.512444e-02
6.079300e+02 8.654177e-02
6.177630e+02 8.798251e-02
6.277550e+02 8.944753e-02
6.379080e+02 9.093659e-02
6.482260e+02 9.245056e-02
6.587110e+02 9.385192e-02
6.693650e+02 9.523957e-02
6.801910e+02 9.664755e-02
6.911930e+02 9.807665e-02
7.023720e+02 9.952662e-02
7.137330e+02 1.009980e-01
7.252770e+02 1.024913e-01
7.370080e+02 1.040066e-01
7.489280e+02 1.058273e-01
7.610420e+02 1.077382e-01
7.733510e+02 1.096839e-01
7.858590e+02 1.116647e-01
7.985700e+02 1.138404e-01
8.114860e+02 1.162373e-01
8.246110e+02 1.186846e-01
8.379490e+02 1.211836e-01
8.515020e+02 1.237760e-01
8.652740e+02 1.263681e-01
8.792690e+02 1.286539e-01
8.934910e+02 1.309846e-01
9.079430e+02 1.333586e-01
9.226280e+02 1.357764e-01
9.375510e+02 1.392453e-01
9.527150e+02 1.430842e-01
9.681240e+02 1.472843e-01
9.837830e+02 1.516124e-01
9.996950e+02 1.561035e-01
1.015860e+03 1.607668e-01
1.032290e+03 1.659700e-01
1.048990e+03 1.713625e-01
1.065960e+03 1.769487e-01
1.083200e+03 1.827228e-01
1.100720e+03 1.886866e-01
1.118520e+03 1.948464e-01
1.136610e+03 2.012129e-01
1.155000e+03 2.077928e-01
1.173680e+03 2.145899e-01
1.192660e+03 2.216117e-01
1.211950e+03 2.288669e-01
1.231550e+03 2.363603e-01
1.251470e+03 2.440867e-01
1.271720e+03 2.520487e-01
1.292290e+03 2.602440e-01
1.313190e+03 2.687101e-01
1.334430e+03 2.774548e-01
1.356010e+03 2.864880e-01
1.377940e+03 2.958208e-01
1.400230e+03 3.054632e-01
1.422880e+03 3.154264e-01
1.445890e+03 3.257139e-01
1.469280e+03 3.364038e-01
1.493040e+03 3.475469e-01
1.517190e+03 3.595035e-01
1.541730e+03 3.719352e-01
1.566670e+03 3.848040e-01
1.592010e+03 3.981174e-01
1.617760e+03 4.118940e-01
1.643920e+03 4.261612e-01
1.670510e+03 4.409226e-01
1.697530e+03 4.561963e-01
1.724990e+03 4.720040e-01
1.752890e+03 4.886985e-01
1.781240e+03 5.061042e-01
1.810050e+03 5.242382e-01
1.839320e+03 5.430093e-01
1.869070e+03 5.624540e-01
1.899300e+03 5.826023e-01
1.930020e+03 6.034679e-01
1.961240e+03 6.250859e-01
1.992960e+03 6.474814e-01
2.025200e+03 6.703188e-01
2.057950e+03 6.946779e-01
2.091240e+03 7.200723e-01
2.125060e+03 7.464689e-01
2.159430e+03 7.739317e-01
2.194360e+03 8.025001e-01
2.229850e+03 8.322317e-01
2.265920e+03 8.631361e-01
2.302570e+03 8.953272e-01
2.339810e+03 9.287963e-01
2.377660e+03 9.636697e-01
2.416110e+03 9.999751e-01
2.455190e+03 1.037763e+00
2.483900e+03 1.066035e+00
2.484100e+03 3.980058e-01
2.494900e+03 4.022895e-01
2.535260e+03 4.185330e-01
2.576260e+03 4.353976e-01
2.585500e+03 4.392536e-01
2.585700e+03 3.021132e-01
2.617930e+03 3.114019e-01
2.660270e+03 3.238587e-01
2.703300e+03 3.368016e-01
2.747030e+03 3.502568e-01
2.791460e+03 3.642366e-01
2.836610e+03 3.787588e-01
2.882490e+03 3.938486e-01
2.929110e+03 4.095333e-01
2.976480e+03 4.258342e-01
3.024630e+03 4.427805e-01
3.066300e+03 4.577641e-01
3.066500e+03 3.948386e-01
3.073550e+03 3.970698e-01
3.123260e+03 4.130216e-01
3.173780e+03 4.296109e-01
3.225110e+03 4.468466e-01
3.277270e+03 4.647768e-01
3.330280e+03 4.834196e-01
3.384150e+03 5.027850e-01
3.438880e+03 5.229222e-01
3.494500e+03 5.438590e-01
3.551020e+03 5.656368e-01
3.554100e+03 5.668386e-01
3.554300e+03 5.346057e-01
3.608460e+03 5.544760e-01
3.666820e+03 5.763670e-01
3.726130e+03 5.991412e-01
3.786400e+03 6.227876e-01
3.847640e+03 6.473429e-01
3.850600e+03 6.485445e-01
3.850800e+03 6.215120e-01
3.909870e+03 6.447592e-01
3.973110e+03 6.702002e-01
4.037380e+03 6.966631e-01
4.102680e+03 7.242941e-01
4.169030e+03 7.530683e-01
4.236460e+03 7.830510e-01
4.304980e+03 8.142955e-01
4.374620e+03 8.468581e-01
4.445370e+03 8.807973e-01
4.517270e+03 9.161898e-01
4.590330e+03 9.530254e-01
4.664580e+03 9.914567e-01
4.740030e+03 1.031498e+00
4.816690e+03 1.073229e+00
4.894600e+03 1.116725e+00
4.973770e+03 1.162052e+00
5.054210e+03 1.209307e+00
5.135960e+03 1.258542e+00
5.219030e+03 1.309857e+00
5.303440e+03 1.363343e+00
5.389220e+03 1.419076e+00
5.476390e+03 1.477190e+00
5.564970e+03 1.537727e+00
5.654980e+03 1.600822e+00
5.746440e+03 1.666588e+00
5.839390e+03 1.735141e+00
5.933830e+03 1.806560e+00
6.029810e+03 1.881006e+00
6.127330e+03 1.958623e+00
6.226440e+03 2.039475e+00
6.327150e+03 2.123745e+00
6.429480e+03 2.211605e+00
6.533480e+03 2.303155e+00
6.639150e+03 2.398551e+00
6.746540e+03 2.498018e+00
6.855650e+03 2.601623e+00
6.966540e+03 2.709658e+00
7.079220e+03 2.822223e+00
7.193720e+03 2.939581e+00
7.310070e+03 3.061872e+00
7.428310e+03 3.189264e+00
7.548450e+03 3.322119e+00
7.670540e+03 3.460570e+00
7.794610e+03 3.604876e+00
7.920680e+03 3.755195e+00
8.048790e+03 3.912039e+00
8.178980e+03 4.075419e+00
8.311260e+03 4.245659e+00
8.445690e+03 4.423091e+00
8.582290e+03 4.608152e+00
8.721110e+03 4.800951e+00
8.862160e+03 5.002047e+00
9.005500e+03 5.211434e+00
9.151160e+03 5.429888e+00
9.299170e+03 5.657521e+00
9.449580e+03 5.894885e+00
9.602420e+03 6.142278e+00
9.757730e+03 6.400174e+00
9.915550e+03 6.668881e+00
1.007590e+04 6.959025e+00
1.023890e+04 7.261917e+00
1.040450e+04 7.578025e+00
1.057280e+04 7.907961e+00
1.074380e+04 8.252257e+00
1.091760e+04 8.611573e+00
1.109420e+04 8.986488e+00
1.127360e+04 9.377648e+00
1.145590e+04 9.785727e+00
1.164120e+04 1.021150e+01
1.182950e+04 1.065568e+01
1.202080e+04 1.111893e+01
1.221530e+04 1.160220e+01
1.241280e+04 1.210608e+01
1.261360e+04 1.263163e+01
1.281760e+04 1.317959e+01
1.302500e+04 1.375101e+01
1.303510e+04 1.377933e+01
1.303530e+04 5.539165e+00
1.323560e+04 5.775950e+00
1.344970e+04 6.036009e+00
1.366720e+04 6.307749e+00
1.388830e+04 6.591756e+00
1.411290e+04 6.888513e+00
1.434120e+04 7.198649e+00
1.457310e+04 7.522715e+00
1.480890e+04 7.861432e+00
1.504840e+04 8.215347e+00
1.519990e+04 8.444347e+00
1.520010e+04 6.056660e+00
1.529180e+04 6.147184e+00
1.553910e+04 6.395510e+00
1.579040e+04 6.653839e+00
1.586070e+04 6.727138e+00
1.586090e+04 5.883849e+00
1.604580e+04 6.055286e+00
1.630540e+04 6.300834e+00
1.656910e+04 6.557324e+00
1.683710e+04 6.825252e+00
1.710940e+04 7.105114e+00
1.738610e+04 7.397459e+00
1.766740e+04 7.702937e+00
1.795310e+04 8.021965e+00
1.824350e+04 8.355286e+00
1.853860e+04 8.703481e+00
1.883840e+04 9.067217e+00
1.914310e+04 9.447214e+00
1.945270e+04 9.844194e+00
1.976740e+04 1.025899e+01
2.008710e+04 1.069229e+01
2.041200e+04 1.114499e+01
2.074210e+04 1.161792e+01
2.107760e+04 1.211207e+01
2.141850e+04 1.262833e+01
2.176500e+04 1.316779e+01
2.211700e+04 1.373133e+01
2.247470e+04 1.432016e+01
2.283820e+04 1.493540e+01
2.320760e+04 1.557826e+01
2.358300e+04 1.624998e+01
2.396440e+04 1.695176e+01
2.435200e+04 1.768509e+01
2.474590e+04 1.845138e+01
2.514620e+04 1.925211e+01
2.555290e+04 2.008870e+01
2.596620e+04 2.096294e+01
2.638610e+04 2.187638e+01
2.681290e+04 2.283096e+01
2.724660e+04 2.382846e+01
2.768730e+04 2.487079e+01
2.813510e+04 2.595993e+01
2.859020e+04 2.709813e+01
2.905260e+04 2.828744e+01
2.952250e+04 2.953031e+01
3.000000e+04 3.082906e+01
