# material=Po density=9.196
# Photon Energy [eV]  Attenuation Length [um]
1.000000e+01 1.101294e-02
1.016170e+01 1.112283e-02
1.032610e+01 1.123392e-02
1.049310e+01 1.134604e-02
1.066280e+01 1.145930e-02
1.083530e+01 1.151523e-02
1.101060e+01 1.154922e-02
1.118860e+01 1.158317e-02
1.136960e+01 1.161735e-02
1.155350e+01 1.165160e-02
1.174040e+01 1.175747e-02
1.193030e+01 1.188200e-02
1.212320e+01 1.200776e-02
1.231930e+01 1.213493e-02
1.251860e+01 1.226349e-02
1.272100e+01 1.250060e-02
1.292680e+01 1.278020e-02
1.313590e+01 1.306600e-02
1.334830e+01 1.335812e-02
1.356420e+01 1.365714e-02
1.378360e+01 1.397846e-02
1.400660e+01 1.430742e-02
1.423310e+01 1.464402e-02
1.446330e+01 1.498854e-02
1.469730e+01 1.534128e-02
1.493500e+01 1.567029e-02
1.517650e+01 1.600448e-02
1.542200e+01 1.634589e-02
1.567140e+01 1.669452e-02
1.592490e+01 1.705062e-02
1.618250e+01 1.741436e-02
1.644420e+01 1.778400e-02
1.671020e+01 1.814951e-02
1.698050e+01 1.852254e-02
1.725510e+01 1.890320e-02
1.753420e+01 1.929167e-02
1.781780e+01 1.995952e-02
1.810600e+01 2.082075e-02
1.839890e+01 2.171914e-02
1.869640e+01 2.265620e-02
1.899880e+01 2.364233e-02
1.930610e+01 2.469010e-02
1.961840e+01 2.578439e-02
1.993570e+01 2.692705e-02
2.025820e+01 2.812051e-02
2.058580e+01 2.954375e-02
2.091880e+01 3.107470e-02
2.125710e+01 3.268488e-02
2.160090e+01 3.450285e-02
2.195030e+01 3.741663e-02
2.230530e+01 4.057647e-02
2.266610e+01 4.400312e-02
2.303270e+01 4.738178e-02
2.340530e+01 5.078514e-02
2.378380e+01 5.443270e-02
2.416850e+01 5.845796e-02
2.455940e+01 6.294159e-02
2.495660e+01 6.776903e-02
2.536030e+01 7.247132e-02
2.577050e+01 7.720663e-02
2.618730e+01 8.225098e-02
2.661090e+01 8.424555e-02
2.704130e+01 8.580334e-02
2.747860e+01 8.799302e-02
2.792310e+01 9.114829e-02
2.837470e+01 9.295174e-02
2.883370e+01 9.222353e-02
2.930000e+01 9.139440e-02
2.977390e+01 8.945586e-02
3.025550e+01 8.755845e-02
3.074490e+01 7.210947e-02
3.124210e+01 5.033896e-02
3.174750e+01 3.551578e-02
3.226090e+01 3.377736e-02
3.278270e+01 3.231730e-02
3.331300e+01 3.110532e-02
3.385180e+01 2.994225e-02
3.439930e+01 2.987999e-02
3.495570e+01 2.981796e-02
3.552110e+01 2.988634e-02
3.609560e+01 3.021451e-02
3.667940e+01 3.054629e-02
3.727270e+01 3.088247e-02
3.787550e+01 3.122237e-02
3.848820e+01 3.156610e-02
3.911070e+01 3.136430e-02
3.974320e+01 3.108130e-02
4.038610e+01 3.080099e-02
4.103930e+01 3.032203e-02
4.170310e+01 2.960136e-02
4.237760e+01 2.889781e-02
4.306300e+01 2.820849e-02
4.375950e+01 2.698381e-02
4.446730e+01 2.581232e-02
4.518650e+01 2.469169e-02
4.591740e+01 2.360292e-02
4.666000e+01 2.254911e-02
4.741470e+01 2.154256e-02
4.818160e+01 2.058093e-02
4.896090e+01 1.966222e-02
4.975280e+01 1.908186e-02
5.055760e+01 1.853813e-02
5.137530e+01 1.800987e-02
5.220620e+01 1.749665e-02
5.305060e+01 1.699809e-02
5.390870e+01 1.651370e-02
5.478060e+01 1.621751e-02
5.566670e+01 1.592698e-02
5.656700e+01 1.564169e-02
5.748200e+01 1.536143e-02
5.841170e+01 1.516451e-02
5.935640e+01 1.507316e-02
6.031650e+01 1.498234e-02
6.129210e+01 1.489210e-02
6.228340e+01 1.480238e-02
6.329080e+01 1.471325e-02
6.431450e+01 1.462458e-02
6.535470e+01 1.453652e-02
6.641180e+01 1.444894e-02
6.748590e+01 1.436186e-02
6.857750e+01 1.435941e-02
6.968670e+01 1.450586e-02
7.081380e+01 1.465386e-02
7.195910e+01 1.480337e-02
7.312300e+01 1.495437e-02
7.430570e+01 1.510692e-02
7.550760e+01 1.526111e-02
7.672890e+01 1.541677e-02
7.796990e+01 1.557403e-02
7.923100e+01 1.573293e-02
8.051250e+01 1.595604e-02
8.181470e+01 1.623694e-02
8.313800e+01 1.652283e-02
8.448270e+01 1.681372e-02
8.584910e+01 1.710975e-02
8.723770e+01 1.741099e-02
8.864870e+01 1.777687e-02
9.008250e+01 1.860660e-02
9.153950e+01 1.947512e-02
9.302010e+01 2.036907e-02
9.452460e+01 2.120287e-02
9.605350e+01 2.207083e-02
9.760710e+01 2.297441e-02
9.918580e+01 2.425418e-02
1.007900e+02 2.586999e-02
1.024200e+02 2.759319e-02
1.040770e+02 2.910104e-02
1.057600e+02 3.058736e-02
1.074710e+02 3.214964e-02
1.092090e+02 3.379168e-02
1.109750e+02 3.551734e-02
1.127700e+02 3.733159e-02
1.145940e+02 3.981836e-02
1.164480e+02 4.280368e-02
1.183310e+02 4.601216e-02
1.202450e+02 4.946196e-02
1.221900e+02 5.316983e-02
1.241660e+02 5.600048e-02
1.261750e+02 5.830602e-02
1.282150e+02 6.070540e-02
1.302890e+02 6.320436e-02
1.323970e+02 6.580644e-02
1.345380e+02 6.851472e-02
1.367140e+02 7.133457e-02
1.389250e+02 7.427064e-02
1.411720e+02 7.732792e-02
1.434560e+02 8.223737e-02
1.457760e+02 8.852763e-02
1.481340e+02 9.529945e-02
1.505300e+02 1.025894e-01
1.529640e+02 1.104362e-01
1.554390e+02 1.188844e-01
1.579530e+02 1.278596e-01
1.605070e+02 1.367266e-01
1.631030e+02 1.462094e-01
1.657420e+02 1.563504e-01
1.684220e+02 1.671939e-01
1.711460e+02 1.787894e-01
1.739150e+02 1.911905e-01
1.767270e+02 2.044491e-01
1.795860e+02 2.123268e-01
1.824910e+02 2.198237e-01
1.854420e+02 2.275834e-01
1.884420e+02 2.358113e-01
1.914890e+02 2.455022e-01
1.945870e+02 2.555933e-01
1.977340e+02 2.660981e-01
2.009320e+02 2.761164e-01
2.041820e+02 2.858845e-01
2.074850e+02 2.937898e-01
2.108400e+02 2.978634e-01
2.142510e+02 2.995853e-01
2.177160e+02 2.984107e-01
2.212370e+02 2.972398e-01
2.248160e+02 2.933964e-01
2.284520e+02 2.860133e-01
2.321470e+02 2.788161e-01
2.359020e+02 2.660706e-01
2.397170e+02 2.534368e-01
2.435950e+02 2.411329e-01
2.475350e+02 2.294261e-01
2.515380e+02 2.182864e-01
2.556070e+02 2.069075e-01
2.597410e+02 1.958582e-01
2.639420e+02 1.853993e-01
2.682110e+02 1.754989e-01
2.725490e+02 1.660235e-01
2.769570e+02 1.568422e-01
2.814370e+02 1.481687e-01
2.859890e+02 1.399746e-01
2.906150e+02 1.334400e-01
2.953150e+02 1.274580e-01
3.000920e+02 1.217447e-01
3.049450e+02 1.162868e-01
3.098780e+02 1.123142e-01
3.148900e+02 1.088077e-01
3.199830e+02 1.054101e-01
3.251580e+02 1.021191e-01
3.304180e+02 9.934634e-02
3.357620e+02 9.730700e-02
3.411920e+02 9.530911e-02
3.467110e+02 9.335254e-02
3.523190e+02 9.143598e-02
3.580170e+02 8.955860e-02
3.638080e+02 8.819517e-02
3.696920e+02 8.692630e-02
3.756720e+02 8.567595e-02
3.817480e+02 8.444339e-02
3.879220e+02 8.322875e-02
3.941970e+02 8.203144e-02
4.005730e+02 8.085162e-02
4.070520e+02 7.971164e-02
4.136350e+02 7.899011e-02
4.203260e+02 7.827554e-02
4.271240e+02 7.756724e-02
4.340320e+02 7.686531e-02
4.410520e+02 7.616967e-02
4.481860e+02 7.548053e-02
4.554350e+02 7.491673e-02
4.628020e+02 7.484249e-02
4.702870e+02 7.476823e-02
4.778940e+02 7.469421e-02
4.856230e+02 7.462005e-02
4.934780e+02 7.475556e-02
5.014590e+02 7.544544e-02
5.095700e+02 7.614161e-02
5.178120e+02 7.684419e-02
5.261870e+02 7.755325e-02
5.346980e+02 7.891418e-02
5.433460e+02 8.035047e-02
5.521340e+02 8.181301e-02
5.610650e+02 8.330219e-02
5.701390e+02 8.481835e-02
5.793610e+02 8.671589e-02
5.887320e+02 8.908187e-02
5.982540e+02 9.151268e-02
6.079300e+02 9.400954e-02
6.177630e+02 9.661203e-02
6.277550e+02 9.936534e-02
6.379080e+02 1.021967e-01
6.482260e+02 1.049389e-01
6.587110e+02 1.073669e-01
6.693650e+02 1.098139e-01
6.801910e+02 1.122066e-01
6.911930e+02 1.145403e-01
7.023720e+02 1.167008e-01
7.137330e+02 1.179816e-01
7.252770e+02 1.186351e-01
7.370080e+02 1.192926e-01
7.489280e+02 1.199537e-01
7.610420e+02 1.206501e-01
7.733510e+02 1.216904e-01
7.858590e+02 1.238550e-01
7.985700e+02 1.270092e-01
8.114860e+02 1.302425e-01
8.246110e+02 1.335586e-01
8.379490e+02 1.369595e-01
8.515020e+02 1.405162e-01
8.652740e+02 1.442576e-01
8.792690e+02 1.481832e-01
8.934910e+02 1.522152e-01
9.079430e+02 1.563579e-01
9.226280e+02 1.606136e-01
9.375510e+02 1.640794e-01
9.527150e+02 1.673701e-01
9.681240e+02 1.705033e-01
9.837830e+02 1.736957e-01
9.996950e+02 1.771240e-01
1.015860e+03 1.808116e-01
1.032290e+03 1.864921e-01
1.048990e+03 1.924186e-01
1.065960e+03 1.985897e-01
1.083200e+03 2.049629e-01
1.100720e+03 2.115427e-01
1.118520e+03 2.183356e-01
1.136610e+03 2.253524e-01
1.155000e+03 2.325974e-01
1.173680e+03 2.400761e-01
1.192660e+03 2.477991e-01
1.211950e+03 2.557760e-01
1.231550e+03 2.640143e-01
1.251470e+03 2.725274e-01
1.271720e+03 2.813207e-01
1.292290e+03 2.903977e-01
1.313190e+03 2.997728e-01
1.334430e+03 3.094574e-01
1.356010e+03 3.194638e-01
1.377940e+03 3.298004e-01
1.400230e+03 3.404782e-01
1.422880e+03 3.515077e-01
1.445890e+03 3.629065e-01
1.469280e+03 3.747447e-01
1.493040e+03 3.870719e-01
1.517190e+03 4.002236e-01
1.541730e+03 4.138896e-01
1.566670e+03 4.280384e-01
1.592010e+03 4.426888e-01
1.617760e+03 4.578442e-01
1.643920e+03 4.735180e-01
1.670510e+03 4.897554e-01
1.697530e+03 5.065631e-01
1.724990e+03 5.239629e-01
1.752890e+03 5.424077e-01
1.781240e+03 5.616623e-01
1.810050e+03 5.817219e-01
1.839320e+03 6.025331e-01
1.869070e+03 6.241046e-01
1.899300e+03 6.464539e-01
1.930020e+03 6.696057e-01
1.961240e+03 6.936118e-01
1.992960e+03 7.185217e-01
2.025200e+03 7.438891e-01
2.057950e+03 7.711016e-01
2.091240e+03 7.995065e-01
2.125060e+03 8.290469e-01
2.159430e+03 8.598755e-01
2.194360e+03 8.919328e-01
2.229850e+03 9.253913e-01
2.265920e+03 9.602536e-01
2.302570e+03 9.965956e-01
2.339810e+03 1.034487e+00
2.377660e+03 1.073998e+00
2.416110e+03 1.115222e+00
2.455190e+03 1.158244e+00
2.494900e+03 1.203114e+00
2.535260e+03 1.249968e+00
2.576260e+03 1.298869e+00
2.617930e+03 1.349927e+00
2.660270e+03 1.403226e+00
2.682900e+03 1.432202e+00
2.683100e+03 5.427153e-01
2.703300e+03 5.530263e-01
2.747030e+03 5.757457e-01
2.791460e+03 5.993823e-01
2.797900e+03 6.028570e-01
2.798100e+03 4.156065e-01
2.836610e+03 4.301482e-01
2.882490e+03 4.478696e-01
2.929110e+03 4.663245e-01
2.976480e+03 4.855171e-01
3.024630e+03 5.054962e-01
3.073550e+03 5.262617e-01
3.123260e+03 5.478674e-01
3.173780e+03 5.703405e-01
3.225110e+03 5.937385e-01
3.277270e+03 6.180622e-01
3.301800e+03 6.297041e-01
3.302000e+03 5.421695e-01
3.330280e+03 5.538052e-01
3.384150e+03 5.763738e-01
3.438880e+03 5.998369e-01
3.494500e+03 6.242521e-01
3.551020e+03 6.496104e-01
3.608460e+03 6.759875e-01
3.666820e+03 7.034177e-01
3.726130e+03 7.319419e-01
3.786400e+03 7.615699e-01
3.847640e+03 7.923713e-01
3.854000e+03 7.956134e-01
3.854200e+03 7.501184e-01
3.909870e+03 7.774111e-01
3.973110e+03 8.091277e-01
4.037380e+03 8.421453e-01
4.102680e+03 8.765091e-01
4.149300e+03 9.015535e-01
4.149500e+03 8.658416e-01
4.169030e+03 8.756066e-01
4.236460e+03 9.097966e-01
4.304980e+03 9.454754e-01
4.374620e+03 9.827156e-01
4.445370e+03 1.021459e+00
4.517270e+03 1.061840e+00
4.590330e+03 1.103932e+00
4.664580e+03 1.147858e+00
4.740030e+03 1.193661e+00
4.816690e+03 1.241371e+00
4.894600e+03 1.291103e+00
4.973770e+03 1.342961e+00
5.054210e+03 1.397001e+00
5.135960e+03 1.453345e+00
5.219030e+03 1.512088e+00
5.303440e+03 1.573335e+00
5.389220e+03 1.637178e+00
5.476390e+03 1.703735e+00
5.564970e+03 1.773121e+00
5.654980e+03 1.845467e+00
5.746440e+03 1.920873e+00
5.839390e+03 1.999484e+00
5.933830e+03 2.081425e+00
6.029810e+03 2.166859e+00
6.127330e+03 2.255937e+00
6.226440e+03 2.348806e+00
6.327150e+03 2.445565e+00
6.429480e+03 2.546494e+00
6.533480e+03 2.651705e+00
6.639150e+03 2.761361e+00
6.746540e+03 2.875672e+00
6.855650e+03 2.994794e+00
6.966540e+03 3.119007e+00
7.079220e+03 3.248572e+00
7.193720e+03 3.383485e+00
7.310070e+03 3.524223e+00
7.428310e+03 3.670909e+00
7.548450e+03 3.823737e+00
7.670540e+03 3.983030e+00
7.794610e+03 4.149129e+00
7.920680e+03 4.322268e+00
8.048790e+03 4.502745e+00
8.178980e+03 4.690825e+00
8.311260e+03 4.886882e+00
8.445690e+03 5.091255e+00
8.582290e+03 5.304138e+00
8.721110e+03 5.526228e+00
8.862160e+03 5.757476e+00
9.005500e+03 5.998724e+00
9.151160e+03 6.250021e+00
9.299170e+03 6.511886e+00
9.449580e+03 6.784954e+00
9.602420e+03 7.069583e+00
9.757730e+03 7.365890e+00
9.915550e+03 7.674963e+00
1.007590e+04 8.015876e+00
1.023890e+04 8.371397e+00
1.040450e+04 8.741984e+00
1.057280e+04 9.128217e+00
1.074380e+04 9.530569e+00
1.091760e+04 9.949635e+00
1.109420e+04 1.038593e+01
1.127360e+04 1.083992e+01
1.145590e+04 1.131223e+01
1.164120e+04 1.180346e+01
1.182950e+04 1.231412e+01
1.202080e+04 1.284467e+01
1.221530e+04 1.339587e+01
1.241280e+04 1.396792e+01
1.261360e+04 1.456168e+01
1.281760e+04 1.517743e+01
1.302500e+04 1.581591e+01
1.323560e+04 1.647730e+01
1.344970e+04 1.716236e+01
1.366720e+04 1.787138e+01
1.381370e+04 1.835858e+01
1.381390e+04 7.251457e+00
1.388830e+04 7.358202e+00
1.411290e+04 7.686593e+00
1.434120e+04 8.029629e+00
1.457310e+04 8.387930e+00
1.480890e+04 8.762289e+00
1.504840e+04 9.153300e+00
1.529180e+04 9.561758e+00
1.553910e+04 9.988404e+00
1.579040e+04 1.043411e+01
1.604580e+04 1.089970e+01
1.624420e+04 1.127025e+01
1.624440e+04 8.067299e+00
1.630540e+04 8.141251e+00
1.656910e+04 8.465295e+00
1.683710e+04 8.802351e+00
1.693920e+04 8.932748e+00
1.693940e+04 7.910352e+00
1.710940e+04 8.100855e+00
1.738610e+04 8.416548e+00
1.766740e+04 8.746535e+00
1.795310e+04 9.091422e+00
1.824350e+04 9.451836e+00
1.853860e+04 9.828516e+00
1.883840e+04 1.022224e+01
1.914310e+04 1.063364e+01
1.945270e+04 1.106362e+01
1.976740e+04 1.151305e+01
2.008710e+04 1.198269e+01
2.041200e+04 1.247353e+01
2.074210e+04 1.298649e+01
2.107760e+04 1.352264e+01
2.141850e+04 1.408297e+01
2.176500e+04 1.466865e+01
2.211700e+04 1.528071e+01
2.247470e+04 1.592041e+01
2.283820e+04 1.658905e+01
2.320760e+04 1.728791e+01
2.358300e+04 1.801840e+01
2.396440e+04 1.878187e+01
2.435200e+04 1.957994e+01
2.474590e+04 2.041413e+01
2.514620e+04 2.128613e+01
2.555290e+04 2.219752e+01
2.596620e+04 2.315025e+01
2.638610e+04 2.414607e+01
2.681290e+04 2.518715e+01
2.724660e+04 2.627542e+01
2.768730e+04 2.741300e+01
2.813510e+04 2.860222e+01
2.859020e+04 2.984544e+01
2.905260e+04 3.114503e+01
2.952250e+04 3.250365e+01
3.000000e+04 3.392395e+01
