# material=Rh density=12.45
# Photon Energy [eV]  Attenuation Length [um]
1.000000e+01 1.671151e-02
1.016170e+01 1.609092e-02
1.032610e+01 1.549341e-02
1.049310e+01 1.491804e-02
1.066280e+01 1.436396e-02
1.083530e+01 1.383058e-02
1.101060e+01 1.331702e-02
1.118860e+01 1.282243e-02
1.136960e+01 1.234625e-02
1.155350e+01 1.188776e-02
1.174040e+01 1.152795e-02
1.193030e+01 1.119223e-02
1.212320e+01 1.086620e-02
1.231930e+01 1.054973e-02
1.251860e+01 1.024255e-02
1.272100e+01 9.944183e-03
1.292680e+01 9.654588e-03
1.313590e+01 9.373441e-03
1.334830e+01 9.100408e-03
1.356420e+01 8.835347e-03
1.378360e+01 8.588522e-03
1.400660e+01 8.380436e-03
1.423310e+01 8.177319e-03
1.446330e+01 7.979145e-03
1.469730e+01 7.785821e-03
1.493500e+01 7.597129e-03
1.517650e+01 7.412986e-03
1.542200e+01 7.233355e-03
1.567140e+01 7.058055e-03
1.592490e+01 6.913352e-03
1.618250e+01 6.815296e-03
1.644420e+01 6.718592e-03
1.671020e+01 6.623291e-03
1.698050e+01 6.529342e-03
1.725510e+01 6.436698e-03
1.753420e+01 6.345396e-03
1.781780e+01 6.255377e-03
1.810600e+01 6.166638e-03
1.839890e+01 6.079167e-03
1.869640e+01 5.992903e-03
1.899880e+01 5.907889e-03
1.930610e+01 5.834803e-03
1.961840e+01 5.782907e-03
1.993570e+01 5.731464e-03
2.025820e+01 5.680501e-03
2.058580e+01 5.629952e-03
2.091880e+01 5.579889e-03
2.125710e+01 5.530245e-03
2.160090e+01 5.481044e-03
2.195030e+01 5.432298e-03
2.230530e+01 5.413759e-03
2.266610e+01 5.403998e-03
2.303270e+01 5.394146e-03
2.340530e+01 5.384309e-03
2.378380e+01 5.374453e-03
2.416850e+01 5.364643e-03
2.455940e+01 5.354838e-03
2.495660e+01 5.345051e-03
2.536030e+01 5.364641e-03
2.577050e+01 5.409139e-03
2.618730e+01 5.453997e-03
2.661090e+01 5.499252e-03
2.704130e+01 5.574413e-03
2.747860e+01 5.674380e-03
2.792310e+01 5.776172e-03
2.837470e+01 5.879764e-03
2.883370e+01 5.985232e-03
2.930000e+01 6.113996e-03
2.977390e+01 6.249866e-03
3.025550e+01 6.388757e-03
3.074490e+01 6.530741e-03
3.124210e+01 6.675859e-03
3.174750e+01 6.824232e-03
3.226090e+01 7.089302e-03
3.278270e+01 7.370205e-03
3.331300e+01 7.662240e-03
3.385180e+01 7.965842e-03
3.439930e+01 8.281454e-03
3.495570e+01 8.584368e-03
3.552110e+01 8.869597e-03
3.609560e+01 9.164302e-03
3.667940e+01 9.468791e-03
3.727270e+01 9.783422e-03
3.787550e+01 1.007061e-02
3.848820e+01 1.035242e-02
3.911070e+01 1.064210e-02
3.974320e+01 1.079608e-02
4.038610e+01 1.089013e-02
4.103930e+01 1.098497e-02
4.170310e+01 1.089409e-02
4.237760e+01 1.071221e-02
4.306300e+01 1.052880e-02
4.375950e+01 1.011649e-02
4.446730e+01 9.720308e-03
4.518650e+01 9.339646e-03
4.591740e+01 9.047127e-03
4.666000e+01 8.765101e-03
4.741470e+01 8.491873e-03
4.818160e+01 8.227142e-03
4.896090e+01 7.970660e-03
4.975280e+01 7.722220e-03
5.055760e+01 7.508980e-03
5.137530e+01 7.325393e-03
5.220620e+01 7.146355e-03
5.305060e+01 6.971644e-03
5.390870e+01 6.823552e-03
5.478060e+01 6.784480e-03
5.566670e+01 6.745655e-03
5.656700e+01 6.706993e-03
5.748200e+01 6.668634e-03
5.841170e+01 6.630420e-03
5.935640e+01 6.654436e-03
6.031650e+01 6.710634e-03
6.129210e+01 6.767276e-03
6.228340e+01 6.824402e-03
6.329080e+01 6.881997e-03
6.431450e+01 7.119107e-03
6.535470e+01 7.380275e-03
6.641180e+01 7.651054e-03
6.748590e+01 7.931714e-03
6.857750e+01 8.222721e-03
6.968670e+01 8.524368e-03
7.081380e+01 8.868918e-03
7.195910e+01 9.261990e-03
7.312300e+01 9.672489e-03
7.430570e+01 1.010124e-02
7.550760e+01 1.071816e-02
7.672890e+01 1.174789e-02
7.796990e+01 1.287657e-02
7.923100e+01 1.411366e-02
8.051250e+01 1.546976e-02
8.181470e+01 1.695594e-02
8.313800e+01 1.858502e-02
8.448270e+01 2.045500e-02
8.584910e+01 2.259655e-02
8.723770e+01 2.496242e-02
8.864870e+01 2.757586e-02
9.008250e+01 3.046310e-02
9.153950e+01 3.365246e-02
9.302010e+01 3.717580e-02
9.452460e+01 4.106799e-02
9.605350e+01 4.505666e-02
9.760710e+01 4.942227e-02
9.918580e+01 5.421080e-02
1.007900e+02 5.946319e-02
1.024200e+02 6.522458e-02
1.040770e+02 7.154462e-02
1.057600e+02 7.905950e-02
1.074710e+02 8.785740e-02
1.092090e+02 9.763349e-02
1.109750e+02 1.084971e-01
1.127700e+02 1.205700e-01
1.145940e+02 1.316303e-01
1.164480e+02 1.431385e-01
1.183310e+02 1.556525e-01
1.202450e+02 1.643742e-01
1.221900e+02 1.701775e-01
1.241660e+02 1.761850e-01
1.261750e+02 1.780939e-01
1.282150e+02 1.799479e-01
1.302890e+02 1.818220e-01
1.323970e+02 1.829544e-01
1.345380e+02 1.807923e-01
1.367140e+02 1.786562e-01
1.389250e+02 1.765455e-01
1.411720e+02 1.744595e-01
1.434560e+02 1.723990e-01
1.457760e+02 1.697350e-01
1.481340e+02 1.656077e-01
1.505300e+02 1.615803e-01
1.529640e+02 1.576505e-01
1.554390e+02 1.538180e-01
1.579530e+02 1.502036e-01
1.605070e+02 1.468789e-01
1.631030e+02 1.436284e-01
1.657420e+02 1.404502e-01
1.684220e+02 1.373412e-01
1.711460e+02 1.343014e-01
1.739150e+02 1.313299e-01
1.767270e+02 1.284228e-01
1.795860e+02 1.277387e-01
1.824910e+02 1.271149e-01
1.854420e+02 1.264933e-01
1.884420e+02 1.258758e-01
1.914890e+02 1.252603e-01
1.945870e+02 1.246488e-01
1.977340e+02 1.240397e-01
2.009320e+02 1.235942e-01
2.041820e+02 1.234083e-01
2.074850e+02 1.232229e-01
2.108400e+02 1.230369e-01
2.142510e+02 1.228521e-01
2.177160e+02 1.226671e-01
2.212370e+02 1.224822e-01
2.248160e+02 1.222982e-01
2.284520e+02 1.228845e-01
2.321470e+02 1.235037e-01
2.359020e+02 1.241260e-01
2.397170e+02 1.247508e-01
2.435950e+02 1.263085e-01
2.475350e+02 1.279744e-01
2.515380e+02 1.296621e-01
2.556070e+02 1.312731e-01
2.597410e+02 1.328488e-01
2.639420e+02 1.344436e-01
2.682110e+02 1.366929e-01
2.725490e+02 1.389802e-01
2.769570e+02 1.413054e-01
2.814370e+02 1.436699e-01
2.859890e+02 1.455103e-01
2.906150e+02 1.464738e-01
2.953150e+02 1.468914e-01
3.000920e+02 1.470434e-01
3.049450e+02 1.456980e-01
3.098780e+02 1.425003e-01
3.148900e+02 1.334611e-01
3.199830e+02 1.176505e-01
3.251580e+02 1.012007e-01
3.304180e+02 8.055938e-02
3.357620e+02 6.912138e-02
3.411920e+02 6.000378e-02
3.467110e+02 5.340806e-02
3.523190e+02 4.801211e-02
3.580170e+02 4.437138e-02
3.638080e+02 4.186924e-02
3.696920e+02 4.043683e-02
3.756720e+02 3.931853e-02
3.817480e+02 3.846917e-02
3.879220e+02 3.822781e-02
3.941970e+02 3.798834e-02
4.005730e+02 3.765920e-02
4.070520e+02 3.732226e-02
4.136350e+02 3.698814e-02
4.203260e+02 3.679120e-02
4.271240e+02 3.679270e-02
4.340320e+02 3.688071e-02
4.410520e+02 3.714873e-02
4.481860e+02 3.741891e-02
4.554350e+02 3.769344e-02
4.628020e+02 3.797990e-02
4.702870e+02 3.826863e-02
4.778940e+02 3.855936e-02
4.856230e+02 3.882621e-02
4.934780e+02 3.907946e-02
5.014590e+02 3.933422e-02
5.095700e+02 3.959068e-02
5.178120e+02 4.031555e-02
5.261870e+02 4.108029e-02
5.346980e+02 4.185939e-02
5.433460e+02 4.266292e-02
5.521340e+02 4.353463e-02
5.610650e+02 4.443986e-02
5.701390e+02 4.535556e-02
5.793610e+02 4.617690e-02
5.887320e+02 4.698270e-02
5.982540e+02 4.778239e-02
6.079300e+02 4.859374e-02
6.177630e+02 4.942034e-02
6.277550e+02 5.027990e-02
6.379080e+02 5.138182e-02
6.482260e+02 5.285666e-02
6.587110e+02 5.461326e-02
6.693650e+02 5.643052e-02
6.801910e+02 5.819645e-02
6.911930e+02 5.992979e-02
7.023720e+02 6.170061e-02
7.137330e+02 6.364362e-02
7.252770e+02 6.573355e-02
7.370080e+02 6.789384e-02
7.489280e+02 7.012426e-02
7.610420e+02 7.242862e-02
7.733510e+02 7.482362e-02
7.858590e+02 7.734398e-02
7.985700e+02 7.998977e-02
8.114860e+02 8.272673e-02
8.246110e+02 8.555766e-02
8.379490e+02 8.848490e-02
8.515020e+02 9.153054e-02
8.652740e+02 9.470255e-02
8.792690e+02 9.800359e-02
8.934910e+02 1.014201e-01
9.079430e+02 1.049559e-01
9.226280e+02 1.086152e-01
9.375510e+02 1.124821e-01
9.527150e+02 1.165089e-01
9.681240e+02 1.206995e-01
9.837830e+02 1.250407e-01
9.996950e+02 1.295495e-01
1.015860e+03 1.342339e-01
1.032290e+03 1.392107e-01
1.048990e+03 1.444013e-01
1.065960e+03 1.498147e-01
1.083200e+03 1.554318e-01
1.100720e+03 1.612585e-01
1.118520e+03 1.673028e-01
1.136610e+03 1.735747e-01
1.155000e+03 1.800821e-01
1.173680e+03 1.868327e-01
1.192660e+03 1.938363e-01
1.211950e+03 2.011030e-01
1.231550e+03 2.086401e-01
1.251470e+03 2.164562e-01
1.271720e+03 2.245580e-01
1.292290e+03 2.329502e-01
1.313190e+03 2.416589e-01
1.334430e+03 2.506900e-01
1.356010e+03 2.600569e-01
1.377940e+03 2.697810e-01
1.400230e+03 2.798662e-01
1.422880e+03 2.903279e-01
1.445890e+03 3.011781e-01
1.469280e+03 3.124806e-01
1.493040e+03 3.242780e-01
1.517190e+03 3.368565e-01
1.541730e+03 3.499680e-01
1.566670e+03 3.635850e-01
1.592010e+03 3.777288e-01
1.617760e+03 3.924268e-01
1.643920e+03 4.077042e-01
1.670510e+03 4.235685e-01
1.697530e+03 4.400515e-01
1.724990e+03 4.571817e-01
1.752890e+03 4.752755e-01
1.781240e+03 4.941895e-01
1.810050e+03 5.139352e-01
1.839320e+03 5.344850e-01
1.869070e+03 5.558548e-01
1.899300e+03 5.780610e-01
1.930020e+03 6.011606e-01
1.961240e+03 6.251889e-01
1.992960e+03 6.501858e-01
2.025200e+03 6.758823e-01
2.057950e+03 7.032635e-01
2.091240e+03 7.318242e-01
2.125060e+03 7.616640e-01
2.159430e+03 7.928381e-01
2.194360e+03 8.253464e-01
2.229850e+03 8.593211e-01
2.265920e+03 8.948044e-01
2.302570e+03 9.318601e-01
2.339810e+03 9.705969e-01
2.377660e+03 1.011080e+00
2.416110e+03 1.053385e+00
2.455190e+03 1.097615e+00
2.494900e+03 1.143883e+00
2.535260e+03 1.192286e+00
2.576260e+03 1.242915e+00
2.617930e+03 1.295902e+00
2.660270e+03 1.351346e+00
2.703300e+03 1.409442e+00
2.747030e+03 1.470278e+00
2.791460e+03 1.534001e+00
2.836610e+03 1.600795e+00
2.882490e+03 1.670807e+00
2.929110e+03 1.744269e+00
2.976480e+03 1.821266e+00
3.003700e+03 1.866458e+00
3.003900e+03 5.310916e-01
3.024630e+03 5.403844e-01
3.073550e+03 5.626927e-01
3.123260e+03 5.858597e-01
3.146000e+03 5.966435e-01
3.146200e+03 4.343459e-01
3.173780e+03 4.440426e-01
3.225110e+03 4.624299e-01
3.277270e+03 4.815836e-01
3.330280e+03 5.015414e-01
3.384150e+03 5.223253e-01
3.411800e+03 5.331917e-01
3.412000e+03 4.607682e-01
3.438880e+03 4.696843e-01
3.494500e+03 4.884552e-01
3.551020e+03 5.080587e-01
3.608460e+03 5.285585e-01
3.666820e+03 5.499643e-01
3.726130e+03 5.723109e-01
3.786400e+03 5.956530e-01
3.847640e+03 6.200508e-01
3.909870e+03 6.455334e-01
3.973110e+03 6.721904e-01
4.037380e+03 6.999942e-01
4.102680e+03 7.290512e-01
4.169030e+03 7.594404e-01
4.236460e+03 7.911524e-01
4.304980e+03 8.243093e-01
4.374620e+03 8.589540e-01
4.445370e+03 8.951490e-01
4.517270e+03 9.329686e-01
4.590330e+03 9.724730e-01
4.664580e+03 1.013774e+00
4.740030e+03 1.056924e+00
4.816690e+03 1.102003e+00
4.894600e+03 1.149124e+00
4.973770e+03 1.198350e+00
5.054210e+03 1.249806e+00
5.135960e+03 1.303570e+00
5.219030e+03 1.359758e+00
5.303440e+03 1.418454e+00
5.389220e+03 1.479823e+00
5.476390e+03 1.543954e+00
5.564970e+03 1.610986e+00
5.654980e+03 1.681030e+00
5.746440e+03 1.754219e+00
5.839390e+03 1.830735e+00
5.933830e+03 1.910691e+00
6.029810e+03 1.994281e+00
6.127330e+03 2.081609e+00
6.226440e+03 2.172923e+00
6.327150e+03 2.268352e+00
6.429480e+03 2.368079e+00
6.533480e+03 2.472344e+00
6.639150e+03 2.581300e+00
6.746540e+03 2.695192e+00
6.855650e+03 2.814271e+00
6.966540e+03 2.938725e+00
7.079220e+03 3.068763e+00
7.193720e+03 3.204747e+00
7.310070e+03 3.346904e+00
7.428310e+03 3.495431e+00
7.548450e+03 3.650685e+00
7.670540e+03 3.813005e+00
7.794610e+03 3.982689e+00
7.920680e+03 4.160216e+00
8.048790e+03 4.345540e+00
8.178980e+03 4.539470e+00
8.311260e+03 4.742029e+00
8.445690e+03 4.953921e+00
8.582290e+03 5.175222e+00
8.721110e+03 5.406674e+00
8.862160e+03 5.648747e+00
9.005500e+03 5.901810e+00
9.151160e+03 6.166324e+00
9.299170e+03 6.442785e+00
9.449580e+03 6.731728e+00
9.602420e+03 7.033929e+00
9.757730e+03 7.349843e+00
9.915550e+03 7.679757e+00
1.007590e+04 8.024948e+00
1.023890e+04 8.385888e+00
1.040450e+04 8.763193e+00
1.057280e+04 9.157671e+00
1.074380e+04 9.570044e+00
1.091760e+04 1.000120e+01
1.109420e+04 1.045194e+01
1.127360e+04 1.092314e+01
1.145590e+04 1.141580e+01
1.164120e+04 1.193088e+01
1.182950e+04 1.246941e+01
1.202080e+04 1.303243e+01
1.221530e+04 1.362116e+01
1.241280e+04 1.423653e+01
1.261360e+04 1.488006e+01
1.281760e+04 1.555282e+01
1.302500e+04 1.625638e+01
1.323560e+04 1.699181e+01
1.344970e+04 1.776083e+01
1.366720e+04 1.856489e+01
1.388830e+04 1.940578e+01
1.411290e+04 2.028483e+01
1.434120e+04 2.120414e+01
1.457310e+04 2.216535e+01
1.480890e+04 2.317044e+01
1.504840e+04 2.422162e+01
1.529180e+04 2.532073e+01
1.553910e+04 2.646993e+01
1.579040e+04 2.767170e+01
1.604580e+04 2.892866e+01
1.630540e+04 3.024334e+01
1.656910e+04 3.161801e+01
1.683710e+04 3.305591e+01
1.710940e+04 3.455961e+01
1.738610e+04 3.613231e+01
1.766740e+04 3.777753e+01
1.795310e+04 3.949803e+01
1.824350e+04 4.129788e+01
1.853860e+04 4.318060e+01
1.883840e+04 4.514988e+01
1.914310e+04 4.721013e+01
1.945270e+04 4.936537e+01
1.976740e+04 5.162048e+01
2.008710e+04 5.397963e+01
2.041200e+04 5.644809e+01
2.074210e+04 5.903080e+01
2.107760e+04 6.173355e+01
2.141850e+04 6.456169e+01
2.176500e+04 6.752185e+01
2.211700e+04 7.061941e+01
2.247470e+04 7.386141e+01
2.283820e+04 7.725510e+01
2.320760e+04 8.080742e+01
2.321980e+04 8.092651e+01
2.322000e+04 1.245051e+01
2.358300e+04 1.295393e+01
2.396440e+04 1.349604e+01
2.435200e+04 1.406302e+01
2.474590e+04 1.465602e+01
2.514620e+04 1.527624e+01
2.555290e+04 1.592482e+01
2.596620e+04 1.660324e+01
2.638610e+04 1.731280e+01
2.681290e+04 1.805500e+01
2.724660e+04 1.883142e+01
2.768730e+04 1.964355e+01
2.813510e+04 2.049310e+01
2.859020e+04 2.138191e+01
2.905260e+04 2.231160e+01
2.952250e+04 2.328433e+01
3.000000e+04 2.430194e+01
