# material=S density=1.96
# Photon Energy [eV]  Attenuation Length [um]
1.000000e+01 9.594289e-03
1.016170e+01 9.328199e-03
1.032610e+01 9.069529e-03
1.049310e+01 8.818015e-03
1.066280e+01 8.573451e-03
1.083530e+01 8.335736e-03
1.101060e+01 8.104603e-03
1.118860e+01 7.879777e-03
1.136960e+01 7.622443e-03
1.155350e+01 7.296987e-03
1.174040e+01 6.985443e-03
1.193030e+01 6.687177e-03
1.212320e+01 6.520608e-03
1.231930e+01 6.399355e-03
1.251860e+01 6.280374e-03
1.272100e+01 6.163533e-03
1.292680e+01 6.148114e-03
1.313590e+01 6.137300e-03
1.334830e+01 6.126465e-03
1.356420e+01 6.115677e-03
1.378360e+01 6.104914e-03
1.400660e+01 6.094188e-03
1.423310e+01 6.083444e-03
1.446330e+01 6.104176e-03
1.469730e+01 6.171980e-03
1.493500e+01 6.240495e-03
1.517650e+01 6.309755e-03
1.542200e+01 6.379825e-03
1.567140e+01 6.450887e-03
1.592490e+01 6.523560e-03
1.618250e+01 6.597047e-03
1.644420e+01 6.671336e-03
1.671020e+01 6.746487e-03
1.698050e+01 6.947936e-03
1.725510e+01 7.171672e-03
1.753420e+01 7.402632e-03
1.781780e+01 7.641036e-03
1.810600e+01 7.887116e-03
1.839890e+01 8.141135e-03
1.869640e+01 8.403285e-03
1.899880e+01 8.709643e-03
1.930610e+01 9.027633e-03
1.961840e+01 9.357240e-03
1.993570e+01 9.698844e-03
2.025820e+01 1.015753e-02
2.058580e+01 1.063933e-02
2.091880e+01 1.114403e-02
2.125710e+01 1.167265e-02
2.160090e+01 1.222633e-02
2.195030e+01 1.280630e-02
2.230530e+01 1.341376e-02
2.266610e+01 1.405008e-02
2.303270e+01 1.495241e-02
2.340530e+01 1.593057e-02
2.378380e+01 1.697260e-02
2.416850e+01 1.807331e-02
2.455940e+01 1.904445e-02
2.495660e+01 2.006774e-02
2.536030e+01 2.114603e-02
2.577050e+01 2.275579e-02
2.618730e+01 2.461358e-02
2.661090e+01 2.665258e-02
2.704130e+01 2.916369e-02
2.747860e+01 3.191137e-02
2.792310e+01 3.491796e-02
2.837470e+01 3.867720e-02
2.883370e+01 4.298553e-02
2.930000e+01 4.777344e-02
2.977390e+01 5.523247e-02
3.025550e+01 6.422519e-02
3.074490e+01 7.183339e-02
3.124210e+01 7.994949e-02
3.174750e+01 8.898305e-02
3.226090e+01 9.876734e-02
3.278270e+01 1.095423e-01
3.331300e+01 1.214626e-01
3.385180e+01 1.341399e-01
3.439930e+01 1.481407e-01
3.495570e+01 1.636202e-01
3.552110e+01 1.808364e-01
3.609560e+01 1.998638e-01
3.667940e+01 2.202879e-01
3.727270e+01 2.418336e-01
3.787550e+01 2.654861e-01
3.848820e+01 2.907023e-01
3.911070e+01 3.174400e-01
3.974320e+01 3.466366e-01
4.038610e+01 3.753551e-01
4.103930e+01 4.054353e-01
4.170310e+01 4.265456e-01
4.237760e+01 4.347989e-01
4.306300e+01 4.432114e-01
4.375950e+01 4.428232e-01
4.446730e+01 4.300473e-01
4.518650e+01 4.176394e-01
4.591740e+01 4.055903e-01
4.666000e+01 3.938878e-01
4.741470e+01 3.825239e-01
4.818160e+01 3.714876e-01
4.896090e+01 3.536769e-01
4.975280e+01 3.352685e-01
5.055760e+01 3.158291e-01
5.137530e+01 2.982599e-01
5.220620e+01 2.913386e-01
5.305060e+01 2.845779e-01
5.390870e+01 2.785897e-01
5.478060e+01 2.745081e-01
5.566670e+01 2.704869e-01
5.656700e+01 2.661277e-01
5.748200e+01 2.604407e-01
5.841170e+01 2.548749e-01
5.935640e+01 2.534996e-01
6.031650e+01 2.533726e-01
6.129210e+01 2.525949e-01
6.228340e+01 2.502962e-01
6.329080e+01 2.480192e-01
6.431450e+01 2.463375e-01
6.535470e+01 2.461720e-01
6.641180e+01 2.460041e-01
6.748590e+01 2.458369e-01
6.857750e+01 2.469900e-01
6.968670e+01 2.483687e-01
7.081380e+01 2.497550e-01
7.195910e+01 2.511492e-01
7.312300e+01 2.544872e-01
7.430570e+01 2.587979e-01
7.550760e+01 2.628474e-01
7.672890e+01 2.656266e-01
7.796990e+01 2.684360e-01
7.923100e+01 2.714627e-01
8.051250e+01 2.754674e-01
8.181470e+01 2.798489e-01
8.313800e+01 2.844930e-01
8.448270e+01 2.892166e-01
8.584910e+01 2.940212e-01
8.723770e+01 2.989033e-01
8.864870e+01 3.039843e-01
9.008250e+01 3.092938e-01
9.153950e+01 3.148887e-01
9.302010e+01 3.209217e-01
9.452460e+01 3.270701e-01
9.605350e+01 3.333394e-01
9.760710e+01 3.397317e-01
9.918580e+01 3.462495e-01
1.007900e+02 3.541872e-01
1.024200e+02 3.636625e-01
1.040770e+02 3.733204e-01
1.057600e+02 3.832325e-01
1.074710e+02 3.930484e-01
1.092090e+02 4.021245e-01
1.109750e+02 4.106262e-01
1.127700e+02 4.188907e-01
1.145940e+02 4.276559e-01
1.164480e+02 4.374725e-01
1.183310e+02 4.477658e-01
1.202450e+02 4.583318e-01
1.221900e+02 4.691354e-01
1.241660e+02 4.801838e-01
1.261750e+02 4.914992e-01
1.282150e+02 5.030806e-01
1.302890e+02 5.149479e-01
1.323970e+02 5.271363e-01
1.345380e+02 5.401631e-01
1.367140e+02 5.537381e-01
1.389250e+02 5.676534e-01
1.411720e+02 5.819209e-01
1.434560e+02 5.965495e-01
1.457760e+02 6.115378e-01
1.481340e+02 6.265299e-01
1.505300e+02 6.412387e-01
1.529640e+02 6.554401e-01
1.554390e+02 6.699648e-01
1.579530e+02 6.848061e-01
1.605070e+02 6.999709e-01
1.624000e+02 7.112653e-01
1.626000e+02 6.020027e-02
1.631030e+02 6.040778e-02
1.657420e+02 6.149708e-02
1.684220e+02 6.260499e-02
1.711460e+02 6.373332e-02
1.739150e+02 6.488256e-02
1.767270e+02 6.605143e-02
1.795860e+02 6.724215e-02
1.824910e+02 6.847033e-02
1.854420e+02 6.980254e-02
1.884420e+02 7.117780e-02
1.914890e+02 7.261584e-02
1.945870e+02 7.417121e-02
1.977340e+02 7.578612e-02
2.009320e+02 7.746008e-02
2.041820e+02 7.917144e-02
2.074850e+02 8.092142e-02
2.108400e+02 8.270899e-02
2.142510e+02 8.409891e-02
2.177160e+02 8.541641e-02
2.212370e+02 8.667779e-02
2.248160e+02 8.795874e-02
2.284520e+02 8.925781e-02
2.321470e+02 9.057576e-02
2.359020e+02 9.191400e-02
2.397170e+02 9.327171e-02
2.435950e+02 9.465017e-02
2.475350e+02 9.604764e-02
2.515380e+02 9.746566e-02
2.556070e+02 9.890627e-02
2.597410e+02 1.003671e-01
2.639420e+02 1.018497e-01
2.682110e+02 1.033544e-01
2.725490e+02 1.048805e-01
2.769570e+02 1.069483e-01
2.814370e+02 1.097303e-01
2.859890e+02 1.130231e-01
2.906150e+02 1.164800e-01
2.953150e+02 1.200426e-01
3.000920e+02 1.237129e-01
3.049450e+02 1.274951e-01
3.098780e+02 1.313949e-01
3.148900e+02 1.354147e-01
3.199830e+02 1.395565e-01
3.251580e+02 1.438224e-01
3.304180e+02 1.482215e-01
3.357620e+02 1.527548e-01
3.411920e+02 1.574257e-01
3.467110e+02 1.622411e-01
3.523190e+02 1.672039e-01
3.580170e+02 1.723175e-01
3.638080e+02 1.775876e-01
3.696920e+02 1.830190e-01
3.756720e+02 1.886164e-01
3.817480e+02 1.943840e-01
3.879220e+02 2.004232e-01
3.941970e+02 2.068696e-01
4.005730e+02 2.140090e-01
4.070520e+02 2.215933e-01
4.136350e+02 2.294384e-01
4.203260e+02 2.375649e-01
4.271240e+02 2.459787e-01
4.340320e+02 2.546914e-01
4.410520e+02 2.637147e-01
4.481860e+02 2.731080e-01
4.554350e+02 2.830922e-01
4.628020e+02 2.936299e-01
4.702870e+02 3.046634e-01
4.778940e+02 3.161169e-01
4.856230e+02 3.280000e-01
4.934780e+02 3.403308e-01
5.014590e+02 3.531272e-01
5.095700e+02 3.663995e-01
5.178120e+02 3.801627e-01
5.261870e+02 3.944250e-01
5.346980e+02 4.091994e-01
5.433460e+02 4.245125e-01
5.521340e+02 4.403871e-01
5.610650e+02 4.576259e-01
5.701390e+02 4.758969e-01
5.793610e+02 4.947284e-01
5.887320e+02 5.142366e-01
5.982540e+02 5.344694e-01
6.079300e+02 5.554919e-01
6.177630e+02 5.773433e-01
6.277550e+02 6.001004e-01
6.379080e+02 6.243616e-01
6.482260e+02 6.505436e-01
6.587110e+02 6.784715e-01
6.693650e+02 7.075996e-01
6.801910e+02 7.362241e-01
6.911930e+02 7.646154e-01
7.023720e+02 7.939017e-01
7.137330e+02 8.265767e-01
7.252770e+02 8.622352e-01
7.370080e+02 8.994473e-01
7.489280e+02 9.382579e-01
7.610420e+02 9.787319e-01
7.733510e+02 1.020910e+00
7.858590e+02 1.064703e+00
7.985700e+02 1.110198e+00
8.114860e+02 1.157637e+00
8.246110e+02 1.207114e+00
8.379490e+02 1.258716e+00
8.515020e+02 1.312816e+00
8.652740e+02 1.369615e+00
8.792690e+02 1.429230e+00
8.934910e+02 1.491446e+00
9.079430e+02 1.556359e+00
9.226280e+02 1.624074e+00
9.375510e+02 1.694851e+00
9.527150e+02 1.768731e+00
9.681240e+02 1.845835e+00
9.837830e+02 1.926336e+00
9.996950e+02 2.010441e+00
1.015860e+03 2.098328e+00
1.032290e+03 2.190970e+00
1.048990e+03 2.287956e+00
1.065960e+03 2.389477e+00
1.083200e+03 2.495505e+00
1.100720e+03 2.606248e+00
1.118520e+03 2.721932e+00
1.136610e+03 2.842699e+00
1.155000e+03 2.968891e+00
1.173680e+03 3.100716e+00
1.192660e+03 3.238264e+00
1.211950e+03 3.381952e+00
1.231550e+03 3.532045e+00
1.251470e+03 3.688659e+00
1.271720e+03 3.851929e+00
1.292290e+03 4.022027e+00
1.313190e+03 4.199704e+00
1.334430e+03 4.385157e+00
1.356010e+03 4.578760e+00
1.377940e+03 4.780954e+00
1.400230e+03 4.992129e+00
1.422880e+03 5.212802e+00
1.445890e+03 5.443026e+00
1.469280e+03 5.682898e+00
1.493040e+03 5.932410e+00
1.517190e+03 6.189032e+00
1.541730e+03 6.456149e+00
1.566670e+03 6.734769e+00
1.592010e+03 7.025446e+00
1.617760e+03 7.328680e+00
1.643920e+03 7.644942e+00
1.670510e+03 7.974848e+00
1.697530e+03 8.319002e+00
1.724990e+03 8.678065e+00
1.752890e+03 9.061101e+00
1.781240e+03 9.464093e+00
1.810050e+03 9.887449e+00
1.839320e+03 1.032980e+01
1.869070e+03 1.079197e+01
1.899300e+03 1.127476e+01
1.930020e+03 1.177909e+01
1.961240e+03 1.230602e+01
1.992960e+03 1.285664e+01
2.025200e+03 1.342279e+01
2.057950e+03 1.403570e+01
2.091240e+03 1.468071e+01
2.125060e+03 1.535864e+01
2.159430e+03 1.607112e+01
2.194360e+03 1.682141e+01
2.229850e+03 1.761144e+01
2.265920e+03 1.844324e+01
2.302570e+03 1.931947e+01
2.339810e+03 2.024366e+01
2.377660e+03 2.121867e+01
2.416110e+03 2.224734e+01
2.455190e+03 2.333330e+01
2.471900e+03 2.380813e+01
2.472100e+03 2.338585e+00
2.494900e+03 2.391248e+00
2.535260e+03 2.486154e+00
2.576260e+03 2.585478e+00
2.617930e+03 2.689311e+00
2.660270e+03 2.797810e+00
2.703300e+03 2.911323e+00
2.747030e+03 3.030144e+00
2.791460e+03 3.154386e+00
2.836610e+03 3.284188e+00
2.882490e+03 3.420072e+00
2.929110e+03 3.562062e+00
2.976480e+03 3.710607e+00
3.024630e+03 3.866116e+00
3.073550e+03 4.028567e+00
3.123260e+03 4.198556e+00
3.173780e+03 4.376284e+00
3.225110e+03 4.562423e+00
3.277270e+03 4.756927e+00
3.330280e+03 4.960264e+00
3.384150e+03 5.173210e+00
3.438880e+03 5.395994e+00
3.494500e+03 5.628988e+00
3.551020e+03 5.872793e+00
3.608460e+03 6.127898e+00
3.666820e+03 6.394743e+00
3.726130e+03 6.673972e+00
3.786400e+03 6.966175e+00
3.847640e+03 7.271899e+00
3.909870e+03 7.591871e+00
3.973110e+03 7.926709e+00
4.037380e+03 8.277126e+00
4.102680e+03 8.643830e+00
4.169030e+03 9.027651e+00
4.236460e+03 9.429332e+00
4.304980e+03 9.849753e+00
4.374620e+03 1.028983e+01
4.445370e+03 1.075044e+01
4.517270e+03 1.123259e+01
4.590330e+03 1.173721e+01
4.664580e+03 1.226564e+01
4.740030e+03 1.281883e+01
4.816690e+03 1.339801e+01
4.894600e+03 1.400418e+01
4.973770e+03 1.463902e+01
5.054210e+03 1.530363e+01
5.135960e+03 1.599938e+01
5.219030e+03 1.672796e+01
5.303440e+03 1.749111e+01
5.389220e+03 1.828992e+01
5.476390e+03 1.912690e+01
5.564970e+03 2.000268e+01
5.654980e+03 2.092060e+01
5.746440e+03 2.188132e+01
5.839390e+03 2.288757e+01
5.933830e+03 2.394116e+01
6.029810e+03 2.504567e+01
6.127330e+03 2.620115e+01
6.226440e+03 2.741219e+01
6.327150e+03 2.868146e+01
6.429480e+03 3.000990e+01
6.533480e+03 3.140144e+01
6.639150e+03 3.285957e+01
6.746540e+03 3.438737e+01
6.855650e+03 3.598779e+01
6.966540e+03 3.766311e+01
7.079220e+03 3.941983e+01
7.193720e+03 4.125966e+01
7.310070e+03 4.318895e+01
7.428310e+03 4.520897e+01
7.548450e+03 4.732639e+01
7.670540e+03 4.954443e+01
7.794610e+03 5.186673e+01
7.920680e+03 5.430142e+01
8.048790e+03 5.685389e+01
8.178980e+03 5.952814e+01
8.311260e+03 6.233085e+01
8.445690e+03 6.526748e+01
8.582290e+03 6.834614e+01
8.721110e+03 7.157265e+01
8.862160e+03 7.495407e+01
9.005500e+03 7.849902e+01
9.151160e+03 8.221409e+01
9.299170e+03 8.610791e+01
9.449580e+03 9.019058e+01
9.602420e+03 9.446882e+01
9.757730e+03 9.895458e+01
9.915550e+03 1.036570e+02
1.007590e+04 1.085872e+02
1.023890e+04 1.137564e+02
1.040450e+04 1.191757e+02
1.057280e+04 1.248586e+02
1.074380e+04 1.308163e+02
1.091760e+04 1.370642e+02
1.109420e+04 1.436158e+02
1.127360e+04 1.504854e+02
1.145590e+04 1.576893e+02
1.164120e+04 1.652452e+02
1.182950e+04 1.731691e+02
1.202080e+04 1.814800e+02
1.221530e+04 1.901981e+02
1.241280e+04 1.993408e+02
1.261360e+04 2.089322e+02
1.281760e+04 2.189938e+02
1.302500e+04 2.295505e+02
1.323560e+04 2.406227e+02
1.344970e+04 2.522410e+02
1.366720e+04 2.644304e+02
1.388830e+04 2.772205e+02
1.411290e+04 2.906422e+02
1.434120e+04 3.047272e+02
1.457310e+04 3.195071e+02
1.480890e+04 3.350209e+02
1.504840e+04 3.513023e+02
1.529180e+04 3.683922e+02
1.553910e+04 3.863316e+02
1.579040e+04 4.051639e+02
1.604580e+04 4.249351e+02
1.630540e+04 4.456967e+02
1.656910e+04 4.674920e+02
1.683710e+04 4.903817e+02
1.710940e+04 5.144173e+02
1.738610e+04 5.396604e+02
1.766740e+04 5.661797e+02
1.795310e+04 5.940306e+02
1.824350e+04 6.232935e+02
1.853860e+04 6.540385e+02
1.883840e+04 6.863397e+02
1.914310e+04 7.202827e+02
1.945270e+04 7.559510e+02
1.976740e+04 7.934517e+02
2.008710e+04 8.330193e+02
2.041200e+04 8.744386e+02
2.074210e+04 9.179488e+02
2.107760e+04 9.636642e+02
2.141850e+04 1.011692e+03
2.176500e+04 1.062159e+03
2.211700e+04 1.115177e+03
2.247470e+04 1.170886e+03
2.283820e+04 1.229428e+03
2.320760e+04 1.290943e+03
2.358300e+04 1.355592e+03
2.396440e+04 1.423525e+03
2.435200e+04 1.494922e+03
2.474590e+04 1.569959e+03
2.514620e+04 1.648831e+03
2.555290e+04 1.731721e+03
2.596620e+04 1.818852e+03
2.638610e+04 1.910433e+03
2.681290e+04 2.006709e+03
2.724660e+04 2.107921e+03
2.768730e+04 2.214320e+03
2.813510e+04 2.326181e+03
2.859020e+04 2.443787e+03
2.905260e+04 2.567436e+03
2.952250e+04 2.697446e+03
3.000000e+04 2.834153e+03
