# material=Si density=2.33
# Photon Energy [eV]  Attenuation Length [um]
1.000000e+01 7.254608e-03
1.016170e+01 7.359241e-03
1.032610e+01 7.465449e-03
1.049310e+01 7.573149e-03
1.066280e+01 7.682405e-03
1.083530e+01 7.793262e-03
1.101050e+01 7.905657e-03
1.118860e+01 8.019724e-03
1.136960e+01 8.135475e-03
1.155350e+01 8.252840e-03
1.174040e+01 8.371940e-03
1.193030e+01 8.492725e-03
1.212320e+01 8.681282e-03
1.231930e+01 8.912814e-03
1.251860e+01 9.150536e-03
1.272100e+01 9.394541e-03
1.292680e+01 9.645121e-03
1.313590e+01 9.902351e-03
1.334830e+01 1.016641e-02
1.356420e+01 1.043755e-02
1.378360e+01 1.071591e-02
1.400660e+01 1.100695e-02
1.423310e+01 1.148402e-02
1.446330e+01 1.198181e-02
1.469720e+01 1.250114e-02
1.493500e+01 1.304311e-02
1.517650e+01 1.360847e-02
1.542200e+01 1.419834e-02
1.567140e+01 1.481380e-02
1.592490e+01 1.545596e-02
1.618250e+01 1.637312e-02
1.644420e+01 1.745448e-02
1.671020e+01 1.860731e-02
1.698050e+01 1.983625e-02
1.725510e+01 2.114635e-02
1.753420e+01 2.254302e-02
1.781780e+01 2.403188e-02
1.810600e+01 2.625330e-02
1.839880e+01 2.992152e-02
1.869640e+01 3.410253e-02
1.899880e+01 3.886748e-02
1.930610e+01 4.429840e-02
1.961840e+01 5.048847e-02
1.993570e+01 5.754316e-02
2.025810e+01 6.729292e-02
2.058580e+01 7.825189e-02
2.091870e+01 8.574028e-02
2.125710e+01 9.394573e-02
2.160090e+01 1.026907e-01
2.195030e+01 1.119762e-01
2.230530e+01 1.221013e-01
2.266610e+01 1.306650e-01
2.303270e+01 1.380065e-01
2.340520e+01 1.457597e-01
2.378380e+01 1.539494e-01
2.416850e+01 1.625990e-01
2.455940e+01 1.702997e-01
2.495660e+01 1.773713e-01
2.536020e+01 1.847363e-01
2.577040e+01 1.924074e-01
2.618720e+01 2.003974e-01
2.661080e+01 2.087192e-01
2.704120e+01 2.114708e-01
2.747860e+01 2.142562e-01
2.792300e+01 2.170778e-01
2.837470e+01 2.199376e-01
2.883360e+01 2.228343e-01
2.930000e+01 2.257694e-01
2.977390e+01 2.287429e-01
3.025540e+01 2.317553e-01
3.074480e+01 2.348083e-01
3.124210e+01 2.379010e-01
3.174740e+01 2.405262e-01
3.226090e+01 2.419162e-01
3.278270e+01 2.433137e-01
3.331290e+01 2.447189e-01
3.385170e+01 2.461331e-01
3.439920e+01 2.475546e-01
3.495560e+01 2.489853e-01
3.552100e+01 2.504240e-01
3.609550e+01 2.518707e-01
3.667930e+01 2.533254e-01
3.727260e+01 2.547894e-01
3.787540e+01 2.562609e-01
3.848800e+01 2.577416e-01
3.911060e+01 2.592311e-01
3.974310e+01 2.613869e-01
4.038600e+01 2.646436e-01
4.103920e+01 2.679402e-01
4.170290e+01 2.712779e-01
4.237740e+01 2.746570e-01
4.306290e+01 2.780793e-01
4.375940e+01 2.815437e-01
4.446710e+01 2.850508e-01
4.518640e+01 2.886020e-01
4.591720e+01 2.921971e-01
4.665990e+01 2.962265e-01
4.741460e+01 3.004976e-01
4.818150e+01 3.048299e-01
4.896080e+01 3.092242e-01
4.975270e+01 3.136827e-01
5.055740e+01 3.182050e-01
5.137510e+01 3.227919e-01
5.220610e+01 3.274457e-01
5.305050e+01 3.315781e-01
5.390850e+01 3.342807e-01
5.478040e+01 3.370055e-01
5.566650e+01 3.397541e-01
5.656680e+01 3.425238e-01
5.748170e+01 3.453161e-01
5.841150e+01 3.481318e-01
5.935620e+01 3.509698e-01
6.031630e+01 3.490786e-01
6.129180e+01 3.466304e-01
6.228320e+01 3.441994e-01
6.329060e+01 3.417853e-01
6.431420e+01 3.393881e-01
6.535450e+01 3.373809e-01
6.641150e+01 3.403326e-01
6.748570e+01 3.433113e-01
6.857720e+01 3.463158e-01
6.968640e+01 3.493466e-01
7.081350e+01 3.578679e-01
7.195880e+01 3.727541e-01
7.312270e+01 3.882591e-01
7.430540e+01 4.044092e-01
7.550720e+01 4.284811e-01
7.672850e+01 4.603690e-01
7.796950e+01 4.946301e-01
7.923060e+01 5.310583e-01
8.051210e+01 5.457016e-01
8.181430e+01 5.607466e-01
8.313760e+01 5.762080e-01
8.448230e+01 5.912125e-01
8.584870e+01 5.912130e-01
8.723730e+01 5.912129e-01
8.864830e+01 5.912135e-01
9.008210e+01 5.912134e-01
9.153910e+01 5.893402e-01
9.301970e+01 5.836530e-01
9.452420e+01 5.780186e-01
9.605300e+01 5.724390e-01
9.760660e+01 5.647945e-01
9.918530e+01 5.488622e-01
9.950000e+01 5.457706e-01
9.952400e+01 5.507365e-01
9.954900e+01 5.506653e-01
9.957600e+01 5.471766e-01
9.960100e+01 5.329864e-01
9.962600e+01 5.169678e-01
9.964900e+01 4.906652e-01
9.967600e+01 4.532070e-01
9.969900e+01 4.029249e-01
9.972600e+01 3.511910e-01
9.974900e+01 3.034615e-01
9.977500e+01 2.653191e-01
9.982600e+01 2.079443e-01
9.985100e+01 1.879215e-01
9.987500e+01 1.723512e-01
9.989900e+01 1.607683e-01
9.992600e+01 1.522796e-01
9.995100e+01 1.450045e-01
9.997400e+01 1.391417e-01
1.000000e+02 1.342870e-01
1.000300e+02 1.301420e-01
1.001200e+02 1.186727e-01
1.001800e+02 1.149104e-01
1.002200e+02 1.110536e-01
1.002500e+02 1.095678e-01
1.002800e+02 1.074876e-01
1.003000e+02 1.052134e-01
1.003500e+02 9.865853e-02
1.003800e+02 9.522400e-02
1.004500e+02 8.472300e-02
1.004800e+02 8.161628e-02
1.005000e+02 7.892951e-02
1.005500e+02 7.445435e-02
1.006000e+02 7.017046e-02
1.006200e+02 6.802924e-02
1.006800e+02 6.607573e-02
1.007000e+02 6.417092e-02
1.007500e+02 6.065976e-02
1.007700e+02 5.939872e-02
1.008000e+02 5.837423e-02
1.008500e+02 5.693076e-02
1.009000e+02 5.641367e-02
1.010000e+02 5.639286e-02
1.010200e+02 5.651242e-02
1.012500e+02 5.621774e-02
1.013200e+02 5.581787e-02
1.013800e+02 5.583085e-02
1.014000e+02 5.596635e-02
1.014500e+02 5.659888e-02
1.015000e+02 5.780496e-02
1.016000e+02 6.080676e-02
1.016300e+02 6.159299e-02
1.016500e+02 6.250262e-02
1.017500e+02 6.562607e-02
1.018200e+02 6.780243e-02
1.018800e+02 6.971339e-02
1.019000e+02 7.062665e-02
1.019500e+02 7.142832e-02
1.020000e+02 7.348428e-02
1.020300e+02 7.436550e-02
1.020500e+02 7.499567e-02
1.021000e+02 7.562475e-02
1.021500e+02 7.688485e-02
1.021800e+02 7.734478e-02
1.022500e+02 7.773155e-02
1.023000e+02 7.817475e-02
1.023500e+02 7.833584e-02
1.024000e+02 7.799420e-02
1.024500e+02 7.735313e-02
1.025300e+02 7.579567e-02
1.025500e+02 7.544267e-02
1.026000e+02 7.532353e-02
1.026500e+02 7.573681e-02
1.027000e+02 7.661855e-02
1.027800e+02 7.821459e-02
1.028800e+02 8.008268e-02
1.029500e+02 8.089647e-02
1.030000e+02 8.121491e-02
1.031200e+02 8.072446e-02
1.032000e+02 8.087505e-02
1.032800e+02 8.159471e-02
1.033200e+02 8.272396e-02
1.033500e+02 8.315193e-02
1.034300e+02 8.515998e-02
1.034500e+02 8.609280e-02
1.035500e+02 8.787688e-02
1.036000e+02 8.849849e-02
1.036200e+02 8.853854e-02
1.037000e+02 8.919382e-02
1.038000e+02 8.923455e-02
1.038800e+02 8.910677e-02
1.040000e+02 8.933490e-02
1.041000e+02 8.993212e-02
1.042200e+02 9.119312e-02
1.042800e+02 9.123196e-02
1.044300e+02 9.103261e-02
1.044700e+02 9.124185e-02
1.045000e+02 9.104238e-02
1.045300e+02 9.104248e-02
1.045700e+02 9.083813e-02
1.046500e+02 9.060401e-02
1.047300e+02 9.075557e-02
1.047500e+02 9.062129e-02
1.048000e+02 9.092075e-02
1.049000e+02 9.020429e-02
1.049300e+02 9.016432e-02
1.049500e+02 8.974216e-02
1.050300e+02 8.946152e-02
1.051500e+02 8.871797e-02
1.051800e+02 8.835992e-02
1.052500e+02 8.776546e-02
1.053200e+02 8.690347e-02
1.053500e+02 8.679447e-02
1.054300e+02 8.570430e-02
1.055000e+02 8.477983e-02
1.055500e+02 8.393907e-02
1.056000e+02 8.292375e-02
1.056300e+02 8.254272e-02
1.057500e+02 8.021304e-02
1.057800e+02 7.979230e-02
1.058500e+02 7.806384e-02
1.058700e+02 7.744532e-02
1.059700e+02 7.558213e-02
1.060300e+02 7.504548e-02
1.060700e+02 7.472538e-02
1.061000e+02 7.469691e-02
1.062300e+02 7.386744e-02
1.062700e+02 7.329724e-02
1.063200e+02 7.306764e-02
1.064000e+02 7.232752e-02
1.064300e+02 7.223255e-02
1.064500e+02 7.191913e-02
1.065500e+02 7.127526e-02
1.066200e+02 7.087865e-02
1.066500e+02 7.062781e-02
1.067000e+02 7.032341e-02
1.067500e+02 6.982683e-02
1.068000e+02 6.960363e-02
1.068700e+02 6.898052e-02
1.069200e+02 6.881355e-02
1.069700e+02 6.848076e-02
1.070000e+02 6.853872e-02
1.071500e+02 6.789361e-02
1.071700e+02 6.788826e-02
1.072000e+02 6.770290e-02
1.072800e+02 6.776717e-02
1.073000e+02 6.759734e-02
1.073200e+02 6.758987e-02
1.073500e+02 6.743589e-02
1.074000e+02 6.738927e-02
1.074200e+02 6.711104e-02
1.075000e+02 6.694158e-02
1.075300e+02 6.683937e-02
1.075500e+02 6.662453e-02
1.075800e+02 6.652744e-02
1.076000e+02 6.658121e-02
1.076200e+02 6.632394e-02
1.076700e+02 6.608589e-02
1.077300e+02 6.601282e-02
1.077500e+02 6.584970e-02
1.078500e+02 6.569748e-02
1.078800e+02 6.549389e-02
1.079300e+02 6.529273e-02
1.079500e+02 6.502550e-02
1.080700e+02 6.453850e-02
1.082200e+02 6.418715e-02
1.082800e+02 6.387384e-02
1.084200e+02 6.363328e-02
1.084500e+02 6.361348e-02
1.085200e+02 6.326923e-02
1.085700e+02 6.323750e-02
1.086000e+02 6.309806e-02
1.087300e+02 6.319282e-02
1.088300e+02 6.308506e-02
1.089000e+02 6.279259e-02
1.090000e+02 6.279261e-02
1.090300e+02 6.280635e-02
1.090700e+02 6.299815e-02
1.091200e+02 6.281916e-02
1.092000e+02 6.277690e-02
1.092500e+02 6.260199e-02
1.092700e+02 6.274750e-02
1.093500e+02 6.275495e-02
1.093800e+02 6.287533e-02
1.094000e+02 6.275762e-02
1.094300e+02 6.282200e-02
1.094500e+02 6.262939e-02
1.095300e+02 6.255184e-02
1.095500e+02 6.236916e-02
1.095700e+02 6.244073e-02
1.096000e+02 6.223164e-02
1.096200e+02 6.231835e-02
1.096700e+02 6.216762e-02
1.098000e+02 6.183165e-02
1.099700e+02 6.149855e-02
1.100000e+02 6.132724e-02
1.105000e+02 5.991782e-02
1.110000e+02 5.825770e-02
1.115000e+02 5.687721e-02
1.125000e+02 5.500087e-02
1.140000e+02 5.297296e-02
1.145000e+02 5.178657e-02
1.150000e+02 5.053466e-02
1.155000e+02 4.921056e-02
1.170000e+02 4.527436e-02
1.175000e+02 4.431637e-02
1.180000e+02 4.349182e-02
1.185000e+02 4.310084e-02
1.190000e+02 4.249062e-02
1.195000e+02 4.247806e-02
1.214330e+02 4.129339e-02
1.215000e+02 4.125305e-02
1.220000e+02 4.104398e-02
1.235000e+02 4.079425e-02
1.240000e+02 4.082918e-02
1.245000e+02 4.063203e-02
1.250000e+02 4.074776e-02
1.270000e+02 4.041771e-02
1.275000e+02 4.039110e-02
1.285000e+02 4.003316e-02
1.295000e+02 3.974029e-02
1.300000e+02 3.945895e-02
1.315000e+02 3.887984e-02
1.330000e+02 3.884814e-02
1.335000e+02 3.909232e-02
1.345000e+02 4.009673e-02
1.360000e+02 4.212361e-02
1.365000e+02 4.262145e-02
1.370000e+02 4.303691e-02
1.375000e+02 4.358810e-02
1.395000e+02 4.391732e-02
1.400000e+02 4.394202e-02
1.405000e+02 4.382400e-02
1.415000e+02 4.406840e-02
1.420000e+02 4.433285e-02
1.425000e+02 4.443984e-02
1.430000e+02 4.465065e-02
1.440000e+02 4.424828e-02
1.450000e+02 4.410098e-02
1.455000e+02 4.387912e-02
1.460000e+02 4.393033e-02
1.465000e+02 4.380479e-02
1.470000e+02 4.382314e-02
1.475000e+02 4.372664e-02
1.480000e+02 4.382534e-02
1.485000e+02 4.380300e-02
1.495000e+02 4.406521e-02
1.500000e+02 4.429719e-02
1.505000e+02 4.425700e-02
1.510000e+02 4.392541e-02
1.515000e+02 4.338096e-02
1.520000e+02 4.303245e-02
1.525000e+02 4.306717e-02
1.535000e+02 4.412771e-02
1.545000e+02 4.566598e-02
1.550000e+02 4.604968e-02
1.555000e+02 4.622330e-02
1.560000e+02 4.625271e-02
1.565000e+02 4.605960e-02
1.575000e+02 4.604325e-02
1.580000e+02 4.585337e-02
1.585000e+02 4.541905e-02
1.590000e+02 4.555262e-02
1.600000e+02 4.534617e-02
1.625000e+02 4.432336e-02
1.635000e+02 4.404379e-02
1.645000e+02 4.390523e-02
1.655000e+02 4.403591e-02
1.665000e+02 4.406337e-02
1.670000e+02 4.437567e-02
1.675000e+02 4.401247e-02
1.690000e+02 4.420185e-02
1.700000e+02 4.458962e-02
1.715000e+02 4.567565e-02
1.720000e+02 4.670289e-02
1.725000e+02 4.689467e-02
1.730000e+02 4.747120e-02
1.735000e+02 4.769201e-02
1.740000e+02 4.890173e-02
1.745000e+02 4.936872e-02
1.750000e+02 5.022711e-02
1.760000e+02 5.130860e-02
1.765000e+02 5.198545e-02
1.770000e+02 5.247811e-02
1.780000e+02 5.308244e-02
1.785000e+02 5.373373e-02
1.790000e+02 5.401378e-02
1.795000e+02 5.448486e-02
1.799900e+02 5.428495e-02
1.829010e+02 5.561337e-02
1.858590e+02 5.697423e-02
1.888660e+02 5.838348e-02
1.919200e+02 5.989127e-02
1.950250e+02 6.143853e-02
1.981790e+02 6.302539e-02
2.013840e+02 6.465320e-02
2.046410e+02 6.623563e-02
2.079510e+02 6.780319e-02
2.113150e+02 6.940796e-02
2.147330e+02 7.105057e-02
2.182060e+02 7.273202e-02
2.217350e+02 7.452163e-02
2.253220e+02 7.673534e-02
2.289660e+02 7.901437e-02
2.326690e+02 8.136123e-02
2.364320e+02 8.377777e-02
2.402570e+02 8.626652e-02
2.441430e+02 8.882884e-02
2.480910e+02 9.146691e-02
2.521040e+02 9.439563e-02
2.561820e+02 9.745362e-02
2.603250e+02 1.006104e-01
2.645360e+02 1.038698e-01
2.688140e+02 1.072344e-01
2.731620e+02 1.107085e-01
2.775800e+02 1.142946e-01
2.820700e+02 1.179973e-01
2.866320e+02 1.218198e-01
2.912680e+02 1.257660e-01
2.959790e+02 1.298401e-01
3.007670e+02 1.341641e-01
3.056310e+02 1.387287e-01
3.105750e+02 1.434496e-01
3.155980e+02 1.483303e-01
3.207020e+02 1.533771e-01
3.258900e+02 1.585962e-01
3.311610e+02 1.639926e-01
3.365170e+02 1.695724e-01
3.419600e+02 1.753423e-01
3.474910e+02 1.813086e-01
3.531110e+02 1.874772e-01
3.588220e+02 1.938563e-01
3.646260e+02 2.004524e-01
3.705230e+02 2.080868e-01
3.765160e+02 2.162380e-01
3.826060e+02 2.247080e-01
3.887950e+02 2.335107e-01
3.950830e+02 2.426575e-01
4.014730e+02 2.521626e-01
4.079670e+02 2.620412e-01
4.145650e+02 2.723051e-01
4.212700e+02 2.829715e-01
4.280840e+02 2.940565e-01
4.350080e+02 3.055748e-01
4.420440e+02 3.175451e-01
4.491940e+02 3.299844e-01
4.564590e+02 3.429098e-01
4.638420e+02 3.564728e-01
4.713440e+02 3.711178e-01
4.789680e+02 3.863642e-01
4.867150e+02 4.022382e-01
4.945870e+02 4.187621e-01
5.025870e+02 4.359672e-01
5.107150e+02 4.538774e-01
5.189760e+02 4.725234e-01
5.273700e+02 4.919372e-01
5.359000e+02 5.121474e-01
5.445670e+02 5.331865e-01
5.533750e+02 5.550918e-01
5.623260e+02 5.778986e-01
5.714210e+02 6.016406e-01
5.806630e+02 6.263568e-01
5.900550e+02 6.530608e-01
5.995990e+02 6.815492e-01
6.092970e+02 7.112800e-01
6.191510e+02 7.423047e-01
6.291660e+02 7.746869e-01
6.393420e+02 8.084814e-01
6.496830e+02 8.437468e-01
6.601910e+02 8.805526e-01
6.708690e+02 9.189666e-01
6.817200e+02 9.590502e-01
6.927460e+02 1.000884e+00
7.039510e+02 1.042680e+00
7.153360e+02 1.085245e+00
7.269060e+02 1.129557e+00
7.386640e+02 1.175674e+00
7.506110e+02 1.223674e+00
7.627510e+02 1.273633e+00
7.750880e+02 1.325638e+00
7.876250e+02 1.379761e+00
8.003640e+02 1.437316e+00
8.133090e+02 1.500564e+00
8.264640e+02 1.566589e+00
8.398310e+02 1.635532e+00
8.534150e+02 1.707503e+00
8.672180e+02 1.782634e+00
8.812450e+02 1.861083e+00
8.954980e+02 1.942982e+00
9.099820e+02 2.033319e+00
9.247000e+02 2.130831e+00
9.396560e+02 2.233017e+00
9.548550e+02 2.340114e+00
9.702990e+02 2.452342e+00
9.859920e+02 2.569963e+00
1.001940e+03 2.693337e+00
1.018150e+03 2.822819e+00
1.034610e+03 2.958482e+00
1.051350e+03 3.100730e+00
1.068350e+03 3.249778e+00
1.085630e+03 3.406002e+00
1.103190e+03 3.560460e+00
1.121030e+03 3.714892e+00
1.139170e+03 3.876306e+00
1.157590e+03 4.044644e+00
1.176310e+03 4.220292e+00
1.195340e+03 4.403733e+00
1.214670e+03 4.595470e+00
1.234320e+03 4.795894e+00
1.254280e+03 5.005003e+00
1.274570e+03 5.223247e+00
1.295190e+03 5.451086e+00
1.316130e+03 5.690180e+00
1.337420e+03 5.939998e+00
1.359050e+03 6.200935e+00
1.381040e+03 6.473350e+00
1.403370e+03 6.758312e+00
1.426070e+03 7.056519e+00
1.449140e+03 7.368411e+00
1.472580e+03 7.694057e+00
1.496390e+03 8.034190e+00
1.520600e+03 8.400466e+00
1.545190e+03 8.784125e+00
1.570180e+03 9.186103e+00
1.595580e+03 9.606356e+00
1.621390e+03 1.004593e+01
1.647610e+03 1.050566e+01
1.674260e+03 1.098644e+01
1.701340e+03 1.148916e+01
1.728860e+03 1.201487e+01
1.756820e+03 1.258114e+01
1.785240e+03 1.317766e+01
1.814110e+03 1.380579e+01
1.815000e+03 1.382545e+01
1.838800e+03 1.435825e+01
1.839000e+03 2.324629e+00
1.838900e+03 1.266920e+00
1.860000e+03 1.301971e+00
1.890080e+03 1.352906e+00
1.920650e+03 1.405857e+00
1.951720e+03 1.460902e+00
1.983290e+03 1.518105e+00
2.015370e+03 1.577772e+00
2.047960e+03 1.640031e+00
2.081090e+03 1.704854e+00
2.114750e+03 1.773725e+00
2.148950e+03 1.845654e+00
2.183710e+03 1.920893e+00
2.219030e+03 1.999694e+00
2.254920e+03 2.081966e+00
2.291390e+03 2.168078e+00
2.328450e+03 2.258208e+00
2.366110e+03 2.352379e+00
2.404380e+03 2.451065e+00
2.443270e+03 2.554175e+00
2.482790e+03 2.662127e+00
2.522950e+03 2.775076e+00
2.563750e+03 2.893050e+00
2.605220e+03 3.016738e+00
2.647360e+03 3.146024e+00
2.690180e+03 3.281184e+00
2.733690e+03 3.422940e+00
2.777900e+03 3.571051e+00
2.822830e+03 3.726011e+00
2.868490e+03 3.888302e+00
2.914890e+03 4.058045e+00
2.962030e+03 4.235850e+00
3.009940e+03 4.421780e+00
3.058620e+03 4.616406e+00
3.108090e+03 4.820220e+00
3.158370e+03 5.033391e+00
3.209450e+03 5.256696e+00
3.261360e+03 5.490397e+00
3.314110e+03 5.734914e+00
3.367710e+03 5.991224e+00
3.422180e+03 6.259289e+00
3.477530e+03 6.540008e+00
3.533780e+03 6.834015e+00
3.590940e+03 7.141614e+00
3.649020e+03 7.464049e+00
3.708040e+03 7.801483e+00
3.768010e+03 8.154659e+00
3.828960e+03 8.524938e+00
3.890890e+03 8.912338e+00
3.953820e+03 9.318246e+00
4.017770e+03 9.743362e+00
4.082750e+03 1.018834e+01
4.148790e+03 1.065491e+01
4.215890e+03 1.114313e+01
4.284080e+03 1.165459e+01
4.353370e+03 1.219053e+01
4.423780e+03 1.275164e+01
4.495330e+03 1.333978e+01
4.568040e+03 1.395586e+01
4.641930e+03 1.460119e+01
4.717010e+03 1.527770e+01
4.793300e+03 1.598605e+01
4.870830e+03 1.672806e+01
4.949610e+03 1.750563e+01
5.029670e+03 1.832007e+01
5.111020e+03 1.917458e+01
5.193680e+03 2.006942e+01
5.277690e+03 2.100663e+01
5.363050e+03 2.198916e+01
5.449790e+03 2.301846e+01
5.537940e+03 2.409770e+01
5.627510e+03 2.522880e+01
5.718530e+03 2.641417e+01
5.811020e+03 2.765634e+01
5.905010e+03 2.895801e+01
6.000520e+03 3.032308e+01
6.097570e+03 3.175396e+01
6.196200e+03 3.325324e+01
6.296420e+03 3.482444e+01
6.349000e+03 3.566785e+01
6.432000e+03 3.703128e+01
6.536030e+03 3.878463e+01
6.641750e+03 4.062302e+01
6.749170e+03 4.255176e+01
6.858330e+03 4.457355e+01
6.969260e+03 4.669248e+01
7.081980e+03 4.891496e+01
7.196530e+03 5.124502e+01
7.312930e+03 5.368769e+01
7.431210e+03 5.625027e+01
7.551400e+03 5.893658e+01
7.673540e+03 6.175311e+01
7.797650e+03 6.470741e+01
7.923770e+03 6.780510e+01
8.051940e+03 7.105465e+01
8.182170e+03 7.446178e+01
8.314510e+03 7.803499e+01
8.448990e+03 8.178327e+01
8.585640e+03 8.571365e+01
8.724510e+03 8.983750e+01
8.865620e+03 9.416298e+01
9.009020e+03 9.869865e+01
9.154730e+03 1.034589e+02
9.302800e+03 1.084508e+02
9.453270e+03 1.136866e+02
9.606170e+03 1.191821e+02
9.761540e+03 1.249467e+02
9.919420e+03 1.309942e+02
1.007990e+04 1.373404e+02
1.024290e+04 1.439977e+02
1.040860e+04 1.509835e+02
1.057690e+04 1.583136e+02
1.074800e+04 1.660054e+02
1.092180e+04 1.740775e+02
1.109850e+04 1.825484e+02
1.127800e+04 1.914390e+02
1.146040e+04 2.007681e+02
1.164580e+04 2.105616e+02
1.183410e+04 2.208381e+02
1.202550e+04 2.316273e+02
1.222000e+04 2.429505e+02
1.241770e+04 2.548386e+02
1.261850e+04 2.673172e+02
1.282260e+04 2.804175e+02
1.303000e+04 2.941724e+02
1.324080e+04 3.086122e+02
1.345490e+04 3.237741e+02
1.367260e+04 3.396969e+02
1.389370e+04 3.564117e+02
1.411840e+04 3.739679e+02
1.434680e+04 3.924019e+02
1.457880e+04 4.117652e+02
1.481460e+04 4.321003e+02
1.505420e+04 4.534600e+02
1.529770e+04 4.758968e+02
1.554520e+04 4.994679e+02
1.579660e+04 5.242272e+02
1.605210e+04 5.502405e+02
1.631170e+04 5.775704e+02
1.657550e+04 6.062879e+02
1.684360e+04 6.364650e+02
1.711610e+04 6.681806e+02
1.739290e+04 7.015077e+02
1.767420e+04 7.365369e+02
1.796010e+04 7.733597e+02
1.825060e+04 8.120665e+02
1.854580e+04 8.527577e+02
1.884570e+04 8.955366e+02
1.915050e+04 9.405202e+02
1.946030e+04 9.878262e+02
1.977500e+04 1.037569e+03
2.009490e+04 1.089926e+03
2.041990e+04 1.144929e+03
2.075020e+04 1.202743e+03
2.108580e+04 1.263509e+03
2.142680e+04 1.327383e+03
2.177340e+04 1.394530e+03
2.212560e+04 1.465119e+03
2.248340e+04 1.539316e+03
2.284710e+04 1.617330e+03
2.321660e+04 1.699345e+03
2.359210e+04 1.785569e+03
2.397370e+04 1.876229e+03
2.436150e+04 1.971557e+03
2.475550e+04 2.071787e+03
2.515590e+04 2.177181e+03
2.556280e+04 2.288011e+03
2.597620e+04 2.404557e+03
2.639640e+04 2.527129e+03
2.682330e+04 2.656024e+03
2.725720e+04 2.791589e+03
2.769800e+04 2.934162e+03
2.814600e+04 3.084135e+03
2.860130e+04 3.241879e+03
2.906390e+04 3.407814e+03
2.953390e+04 3.582343e+03
3.000000e+04 3.761410e+03
