# material=Sm density=7.353
# Photon Energy [eV]  Attenuation Length [um]
1.000000e+01 2.589741e-01
1.016170e+01 2.527975e-01
1.032610e+01 2.467695e-01
1.049310e+01 2.408855e-01
1.066280e+01 2.351404e-01
1.083530e+01 2.295343e-01
1.101060e+01 2.240615e-01
1.118860e+01 2.187170e-01
1.136960e+01 2.135018e-01
1.155350e+01 2.084103e-01
1.174040e+01 2.034414e-01
1.193030e+01 1.985898e-01
1.212320e+01 1.938530e-01
1.231930e+01 1.899748e-01
1.251860e+01 1.865545e-01
1.272100e+01 1.831938e-01
1.292680e+01 1.798961e-01
1.313590e+01 1.766567e-01
1.334830e+01 1.734751e-01
1.356420e+01 1.703515e-01
1.378360e+01 1.675337e-01
1.400660e+01 1.653696e-01
1.423310e+01 1.632323e-01
1.446330e+01 1.611230e-01
1.469730e+01 1.590418e-01
1.493500e+01 1.569866e-01
1.517650e+01 1.549572e-01
1.542200e+01 1.532878e-01
1.567140e+01 1.519713e-01
1.592490e+01 1.506671e-01
1.618250e+01 1.493739e-01
1.644420e+01 1.480913e-01
1.671020e+01 1.468204e-01
1.698050e+01 1.455720e-01
1.725510e+01 1.446299e-01
1.753420e+01 1.436946e-01
1.781780e+01 1.427651e-01
1.810600e+01 1.418417e-01
1.839890e+01 1.409245e-01
1.869640e+01 1.391207e-01
1.899880e+01 1.365452e-01
1.930610e+01 1.340174e-01
1.961840e+01 1.315364e-01
1.993570e+01 1.235586e-01
2.025820e+01 1.114463e-01
2.058580e+01 9.169794e-02
2.091880e+01 6.922176e-02
2.125710e+01 6.185150e-02
2.160090e+01 6.193914e-02
2.195030e+01 6.202747e-02
2.230530e+01 5.819949e-02
2.266610e+01 4.652738e-02
2.303270e+01 4.018521e-02
2.340530e+01 3.878113e-02
2.378380e+01 4.186861e-02
2.416850e+01 3.610614e-02
2.455940e+01 1.957384e-02
2.495660e+01 1.768047e-02
2.536030e+01 1.467888e-02
2.577050e+01 1.314181e-02
2.618730e+01 1.218825e-02
2.661090e+01 1.167080e-02
2.704130e+01 1.151172e-02
2.747860e+01 1.148548e-02
2.792310e+01 1.145946e-02
2.837470e+01 1.143333e-02
2.883370e+01 1.155590e-02
2.930000e+01 1.169638e-02
2.977390e+01 1.183859e-02
3.025550e+01 1.241121e-02
3.074490e+01 1.308494e-02
3.124210e+01 1.362934e-02
3.174750e+01 1.418330e-02
3.226090e+01 1.475684e-02
3.278270e+01 1.528193e-02
3.331300e+01 1.582562e-02
3.385180e+01 1.638888e-02
3.439930e+01 1.703117e-02
3.495570e+01 1.771775e-02
3.552110e+01 1.837396e-02
3.609560e+01 1.904229e-02
3.667940e+01 1.967985e-02
3.727270e+01 2.022869e-02
3.787550e+01 2.079273e-02
3.848820e+01 2.137266e-02
3.911070e+01 2.204172e-02
3.974320e+01 2.274166e-02
4.038610e+01 2.346391e-02
4.103930e+01 2.418757e-02
4.170310e+01 2.492027e-02
4.237760e+01 2.567514e-02
4.306300e+01 2.645289e-02
4.375950e+01 2.706759e-02
4.446730e+01 2.756249e-02
4.518650e+01 2.806648e-02
4.591740e+01 2.851868e-02
4.666000e+01 2.892278e-02
4.741470e+01 2.933271e-02
4.818160e+01 2.974845e-02
4.896090e+01 3.017004e-02
4.975280e+01 3.059764e-02
5.055760e+01 3.103132e-02
5.137530e+01 3.147108e-02
5.220620e+01 3.191710e-02
5.305060e+01 3.236940e-02
5.390870e+01 3.282823e-02
5.478060e+01 3.329342e-02
5.566670e+01 3.376532e-02
5.656700e+01 3.424383e-02
5.748200e+01 3.472921e-02
5.841170e+01 3.522138e-02
5.935640e+01 3.572050e-02
6.031650e+01 3.622682e-02
6.129210e+01 3.674025e-02
6.228340e+01 3.726208e-02
6.329080e+01 3.813577e-02
6.431450e+01 3.902995e-02
6.535470e+01 3.994499e-02
6.641180e+01 4.088162e-02
6.748590e+01 4.184015e-02
6.857750e+01 4.282117e-02
6.968670e+01 4.382519e-02
7.081380e+01 4.485274e-02
7.195910e+01 4.590431e-02
7.312300e+01 4.698062e-02
7.430570e+01 4.808219e-02
7.550760e+01 4.920957e-02
7.672890e+01 5.036336e-02
7.796990e+01 5.154421e-02
7.923100e+01 5.266138e-02
8.051250e+01 5.379967e-02
8.181470e+01 5.496261e-02
8.313800e+01 5.615061e-02
8.448270e+01 5.736440e-02
8.584910e+01 5.860427e-02
8.723770e+01 5.987112e-02
8.864870e+01 6.136467e-02
9.008250e+01 6.290332e-02
9.153950e+01 6.448064e-02
9.302010e+01 6.609759e-02
9.452460e+01 6.775495e-02
9.605350e+01 6.945397e-02
9.760710e+01 7.130262e-02
9.918580e+01 7.385046e-02
1.007900e+02 7.648935e-02
1.024200e+02 7.922238e-02
1.040770e+02 8.205362e-02
1.057600e+02 8.498540e-02
1.074710e+02 9.055098e-02
1.092090e+02 9.989753e-02
1.109750e+02 1.102086e-01
1.127700e+02 1.200496e-01
1.145940e+02 1.291514e-01
1.164480e+02 1.385825e-01
1.183310e+02 1.481498e-01
1.202450e+02 1.583790e-01
1.221900e+02 1.641396e-01
1.241660e+02 1.673041e-01
1.261750e+02 1.067954e-01
1.282150e+02 6.198952e-02
1.302890e+02 3.574228e-02
1.323970e+02 1.582973e-02
1.345380e+02 1.060350e-02
1.367140e+02 1.375387e-02
1.389250e+02 1.750451e-02
1.411720e+02 1.746604e-02
1.434560e+02 1.790636e-02
1.457760e+02 2.035287e-02
1.481340e+02 2.191505e-02
1.505300e+02 2.349477e-02
1.529640e+02 2.518819e-02
1.554390e+02 2.700401e-02
1.579530e+02 2.895050e-02
1.605070e+02 3.103713e-02
1.631030e+02 3.327444e-02
1.657420e+02 3.551868e-02
1.684220e+02 3.756179e-02
1.711460e+02 3.972234e-02
1.739150e+02 4.200761e-02
1.767270e+02 4.442371e-02
1.795860e+02 4.697931e-02
1.824910e+02 4.968174e-02
1.854420e+02 5.222238e-02
1.884420e+02 5.467685e-02
1.914890e+02 5.724606e-02
1.945870e+02 5.993657e-02
1.977340e+02 6.275353e-02
2.009320e+02 6.570237e-02
2.041820e+02 6.879019e-02
2.074850e+02 7.172141e-02
2.108400e+02 7.424906e-02
2.142510e+02 7.686570e-02
2.177160e+02 7.957459e-02
2.212370e+02 8.237890e-02
2.248160e+02 8.528252e-02
2.284520e+02 8.785445e-02
2.321470e+02 8.969420e-02
2.359020e+02 9.157240e-02
2.397170e+02 9.348944e-02
2.435950e+02 9.544768e-02
2.475350e+02 9.744642e-02
2.515380e+02 9.948650e-02
2.556070e+02 1.015695e-01
2.597410e+02 1.036964e-01
2.639420e+02 1.058021e-01
2.682110e+02 1.076243e-01
2.725490e+02 1.094789e-01
2.769570e+02 1.113646e-01
2.814370e+02 1.132841e-01
2.859890e+02 1.152357e-01
2.906150e+02 1.172212e-01
2.953150e+02 1.192407e-01
3.000920e+02 1.212955e-01
3.049450e+02 1.225669e-01
3.098780e+02 1.235867e-01
3.148900e+02 1.246150e-01
3.199830e+02 1.256523e-01
3.251580e+02 1.266975e-01
3.304180e+02 1.277514e-01
3.357620e+02 1.288142e-01
3.411920e+02 1.298863e-01
3.467110e+02 1.312654e-01
3.523190e+02 1.327834e-01
3.580170e+02 1.342500e-01
3.638080e+02 1.357323e-01
3.696920e+02 1.372311e-01
3.756720e+02 1.390198e-01
3.817480e+02 1.410459e-01
3.879220e+02 1.431018e-01
3.941970e+02 1.451885e-01
4.005730e+02 1.484856e-01
4.070520e+02 1.519174e-01
4.136350e+02 1.554295e-01
4.203260e+02 1.590234e-01
4.271240e+02 1.626986e-01
4.340320e+02 1.664600e-01
4.410520e+02 1.703082e-01
4.481860e+02 1.742454e-01
4.554350e+02 1.781884e-01
4.628020e+02 1.821015e-01
4.702870e+02 1.861015e-01
4.778940e+02 1.901881e-01
4.856230e+02 1.943639e-01
4.934780e+02 1.986317e-01
5.014590e+02 2.029925e-01
5.095700e+02 2.074510e-01
5.178120e+02 2.120053e-01
5.261870e+02 2.166609e-01
5.346980e+02 2.214186e-01
5.433460e+02 2.264995e-01
5.521340e+02 2.318294e-01
5.610650e+02 2.374463e-01
5.701390e+02 2.432759e-01
5.793610e+02 2.492176e-01
5.887320e+02 2.552961e-01
5.982540e+02 2.615114e-01
6.079300e+02 2.678784e-01
6.177630e+02 2.744008e-01
6.277550e+02 2.810976e-01
6.379080e+02 2.881585e-01
6.482260e+02 2.956973e-01
6.587110e+02 3.036354e-01
6.693650e+02 3.117848e-01
6.801910e+02 3.196679e-01
6.911930e+02 3.273682e-01
7.023720e+02 3.351915e-01
7.137330e+02 3.437732e-01
7.252770e+02 3.529812e-01
7.370080e+02 3.624409e-01
7.489280e+02 3.721522e-01
7.610420e+02 3.821297e-01
7.733510e+02 3.924480e-01
7.858590e+02 4.033171e-01
7.985700e+02 4.147199e-01
8.114860e+02 4.264332e-01
8.246110e+02 4.384851e-01
8.379490e+02 4.508844e-01
8.515020e+02 4.637401e-01
8.652740e+02 4.770982e-01
8.792690e+02 4.909666e-01
8.934910e+02 5.052400e-01
9.079430e+02 5.199268e-01
9.226280e+02 5.350376e-01
9.375510e+02 5.509614e-01
9.527150e+02 5.674694e-01
9.681240e+02 5.845730e-01
9.837830e+02 6.021720e-01
9.996950e+02 6.203437e-01
1.015860e+03 6.391095e-01
1.032290e+03 6.588424e-01
1.048990e+03 6.792988e-01
1.065960e+03 7.005110e-01
1.083200e+03 7.223833e-01
1.083300e+03 7.225114e-01
1.083500e+03 1.663870e-01
1.100720e+03 1.691217e-01
1.118520e+03 1.719501e-01
1.136610e+03 1.748273e-01
1.155000e+03 1.777533e-01
1.173680e+03 1.807266e-01
1.192660e+03 1.837511e-01
1.211950e+03 1.868261e-01
1.231550e+03 1.899518e-01
1.251470e+03 1.931266e-01
1.271720e+03 1.963538e-01
1.292290e+03 1.996307e-01
1.313190e+03 2.029606e-01
1.334430e+03 2.063464e-01
1.356010e+03 2.097895e-01
1.377940e+03 2.132902e-01
1.400230e+03 2.168496e-01
1.422880e+03 2.204691e-01
1.445890e+03 2.241452e-01
1.469280e+03 2.283444e-01
1.493040e+03 2.333407e-01
1.517190e+03 2.415659e-01
1.541730e+03 2.465362e-01
1.566670e+03 2.443169e-01
1.592010e+03 2.520935e-01
1.617760e+03 2.617274e-01
1.643920e+03 2.717286e-01
1.670510e+03 2.821116e-01
1.697530e+03 2.899220e-01
1.724990e+03 2.923861e-01
1.752890e+03 3.018595e-01
1.781240e+03 3.132726e-01
1.810050e+03 3.251519e-01
1.839320e+03 3.374835e-01
1.869070e+03 3.502866e-01
1.899300e+03 3.635757e-01
1.930020e+03 3.773647e-01
1.961240e+03 3.916780e-01
1.992960e+03 4.065352e-01
2.025200e+03 4.217331e-01
2.057950e+03 4.379787e-01
2.091240e+03 4.548973e-01
2.125060e+03 4.725101e-01
2.159430e+03 4.908635e-01
2.194360e+03 5.099627e-01
2.229850e+03 5.298695e-01
2.265920e+03 5.505858e-01
2.302570e+03 5.721507e-01
2.339810e+03 5.946121e-01
2.377660e+03 6.180151e-01
2.416110e+03 6.423785e-01
2.455190e+03 6.677441e-01
2.494900e+03 6.941620e-01
2.535260e+03 7.216673e-01
2.576260e+03 7.503028e-01
2.617930e+03 7.801307e-01
2.660270e+03 8.111778e-01
2.703300e+03 8.435335e-01
2.747030e+03 8.771918e-01
2.791460e+03 9.122769e-01
2.836610e+03 9.487714e-01
2.882490e+03 9.868235e-01
2.929110e+03 1.026378e+00
2.976480e+03 1.067612e+00
3.024630e+03 1.110556e+00
3.073550e+03 1.155317e+00
3.123260e+03 1.201893e+00
3.173780e+03 1.250355e+00
3.225110e+03 1.300866e+00
3.277270e+03 1.353451e+00
3.330280e+03 1.408231e+00
3.384150e+03 1.465283e+00
3.438880e+03 1.524696e+00
3.494500e+03 1.586558e+00
3.551020e+03 1.650998e+00
3.608460e+03 1.718126e+00
3.666820e+03 1.788021e+00
3.726130e+03 1.860820e+00
3.786400e+03 1.936661e+00
3.847640e+03 2.015640e+00
3.909870e+03 2.097907e+00
3.973110e+03 2.183601e+00
4.037380e+03 2.272856e+00
4.102680e+03 2.365821e+00
4.169030e+03 2.462708e+00
4.236460e+03 2.563588e+00
4.304980e+03 2.668727e+00
4.374620e+03 2.778234e+00
4.445370e+03 2.892328e+00
4.517270e+03 3.011208e+00
4.590330e+03 3.135027e+00
4.664580e+03 3.264118e+00
4.740030e+03 3.398592e+00
4.816690e+03 3.538710e+00
4.894600e+03 3.684770e+00
4.973770e+03 3.836890e+00
5.054210e+03 3.995466e+00
5.135960e+03 4.160803e+00
5.219030e+03 4.333091e+00
5.303440e+03 4.512645e+00
5.389220e+03 4.699791e+00
5.476390e+03 4.894980e+00
5.564970e+03 5.098354e+00
5.654980e+03 5.310511e+00
5.746440e+03 5.531516e+00
5.839390e+03 5.762194e+00
5.933830e+03 6.002618e+00
6.029810e+03 6.253357e+00
6.127330e+03 6.515184e+00
6.226440e+03 6.788019e+00
6.327150e+03 7.072602e+00
6.429480e+03 7.369441e+00
6.533480e+03 7.679304e+00
6.639150e+03 8.002306e+00
6.716100e+03 8.242625e+00
6.716300e+03 2.841120e+00
6.746540e+03 2.878619e+00
6.855650e+03 3.016690e+00
6.966540e+03 3.161443e+00
7.079220e+03 3.313132e+00
7.193720e+03 3.472120e+00
7.310070e+03 3.638766e+00
7.311700e+03 3.641129e+00
7.311900e+03 2.627267e+00
7.428310e+03 2.749647e+00
7.548450e+03 2.879800e+00
7.670540e+03 3.016146e+00
7.736700e+03 3.091771e+00
7.736900e+03 2.700620e+00
7.794610e+03 2.749659e+00
7.920680e+03 2.858629e+00
8.048790e+03 2.972597e+00
8.178980e+03 3.091639e+00
8.311260e+03 3.216064e+00
8.445690e+03 3.346125e+00
8.582290e+03 3.482179e+00
8.721110e+03 3.624356e+00
8.862160e+03 3.772866e+00
9.005500e+03 3.928184e+00
9.151160e+03 4.090603e+00
9.299170e+03 4.260342e+00
9.449580e+03 4.437694e+00
9.602420e+03 4.623131e+00
9.757730e+03 4.817072e+00
9.915550e+03 5.019658e+00
1.007590e+04 5.231553e+00
1.023890e+04 5.453111e+00
1.040450e+04 5.684718e+00
1.057280e+04 5.926889e+00
1.074380e+04 6.180061e+00
1.091760e+04 6.444785e+00
1.109420e+04 6.721563e+00
1.127360e+04 7.010922e+00
1.145590e+04 7.313474e+00
1.164120e+04 7.629866e+00
1.182950e+04 7.960698e+00
1.202080e+04 8.306615e+00
1.221530e+04 8.668394e+00
1.241280e+04 9.046606e+00
1.261360e+04 9.442189e+00
1.281760e+04 9.855821e+00
1.302500e+04 1.028847e+01
1.323560e+04 1.074079e+01
1.344970e+04 1.121389e+01
1.366720e+04 1.170861e+01
1.388830e+04 1.222605e+01
1.411290e+04 1.276715e+01
1.434120e+04 1.333312e+01
1.457310e+04 1.392494e+01
1.480890e+04 1.454405e+01
1.504840e+04 1.519145e+01
1.529180e+04 1.586858e+01
1.553910e+04 1.657675e+01
1.579040e+04 1.731741e+01
1.604580e+04 1.809210e+01
1.630540e+04 1.890247e+01
1.656910e+04 1.974991e+01
1.683710e+04 2.063633e+01
1.710940e+04 2.156338e+01
1.738610e+04 2.253298e+01
1.766740e+04 2.354737e+01
1.795310e+04 2.460807e+01
1.824350e+04 2.571760e+01
1.853860e+04 2.687806e+01
1.883840e+04 2.809177e+01
1.914310e+04 2.936126e+01
1.945270e+04 3.068899e+01
1.976740e+04 3.207785e+01
2.008710e+04 3.353026e+01
2.041200e+04 3.504949e+01
2.074210e+04 3.663828e+01
2.107760e+04 3.830009e+01
2.141850e+04 4.003790e+01
2.176500e+04 4.185582e+01
2.211700e+04 4.375666e+01
2.247470e+04 4.574473e+01
2.283820e+04 4.782387e+01
2.320760e+04 4.999827e+01
2.358300e+04 5.227234e+01
2.396440e+04 5.465026e+01
2.435200e+04 5.713709e+01
2.474590e+04 5.973766e+01
2.514620e+04 6.245702e+01
2.555290e+04 6.530051e+01
2.596620e+04 6.827398e+01
2.638610e+04 7.138259e+01
2.681290e+04 7.463337e+01
2.724660e+04 7.803250e+01
2.768730e+04 8.158627e+01
2.813510e+04 8.530120e+01
2.859020e+04 8.918607e+01
2.905260e+04 9.324671e+01
2.952250e+04 9.749218e+01
3.000000e+04 1.019298e+02
