# material=Ta density=16.65
# Photon Energy [eV]  Attenuation Length [um]
1.000000e+01 8.171188e-03
1.011520e+01 8.070119e-03
1.023170e+01 7.970277e-03
1.034960e+01 7.871723e-03
1.046880e+01 7.774322e-03
1.058940e+01 7.667419e-03
1.071140e+01 7.560904e-03
1.083480e+01 7.455863e-03
1.095960e+01 7.352267e-03
1.108590e+01 7.250156e-03
1.121360e+01 7.149422e-03
1.134280e+01 7.050110e-03
1.147340e+01 6.952108e-03
1.160560e+01 6.866755e-03
1.173930e+01 6.784037e-03
1.187450e+01 6.702283e-03
1.201130e+01 6.621543e-03
1.214970e+01 6.541793e-03
1.228970e+01 6.463001e-03
1.243120e+01 6.385099e-03
1.257440e+01 6.313721e-03
1.271930e+01 6.269989e-03
1.286580e+01 6.226520e-03
1.301400e+01 6.183369e-03
1.316400e+01 6.140562e-03
1.331560e+01 6.097998e-03
1.346900e+01 6.055745e-03
1.362420e+01 6.013805e-03
1.378110e+01 5.972099e-03
1.393990e+01 5.950927e-03
1.410050e+01 5.963379e-03
1.426290e+01 5.975832e-03
1.442720e+01 5.988324e-03
1.459340e+01 6.000851e-03
1.476150e+01 6.013398e-03
1.493160e+01 6.025984e-03
1.510360e+01 6.038584e-03
1.527760e+01 6.056601e-03
1.545360e+01 6.074881e-03
1.563160e+01 6.093194e-03
1.581170e+01 6.111593e-03
1.599380e+01 6.130015e-03
1.617810e+01 6.148523e-03
1.636440e+01 6.167053e-03
1.655290e+01 6.235834e-03
1.674360e+01 6.317323e-03
1.693650e+01 6.399883e-03
1.713160e+01 6.483511e-03
1.732900e+01 6.568256e-03
1.752860e+01 6.654068e-03
1.773050e+01 6.773112e-03
1.793480e+01 6.905567e-03
1.814140e+01 7.040590e-03
1.835040e+01 7.178269e-03
1.856180e+01 7.318629e-03
1.877560e+01 7.461720e-03
1.899190e+01 7.607619e-03
1.921070e+01 7.809954e-03
1.943200e+01 8.042770e-03
1.965580e+01 8.282511e-03
1.988230e+01 8.529449e-03
2.011130e+01 8.783706e-03
2.034300e+01 9.045569e-03
2.057730e+01 9.315201e-03
2.081440e+01 9.592920e-03
2.105420e+01 9.878921e-03
2.129670e+01 1.021967e-02
2.154210e+01 1.059283e-02
2.179020e+01 1.097959e-02
2.204120e+01 1.138045e-02
2.229520e+01 1.179601e-02
2.255200e+01 1.222670e-02
2.281180e+01 1.267312e-02
2.307460e+01 1.313585e-02
2.334040e+01 1.361547e-02
2.360930e+01 1.411258e-02
2.388120e+01 1.462779e-02
2.415640e+01 1.516196e-02
2.443460e+01 1.571549e-02
2.471610e+01 1.618822e-02
2.500080e+01 1.663507e-02
2.528890e+01 1.709436e-02
2.558020e+01 1.756626e-02
2.587490e+01 1.805120e-02
2.617290e+01 1.854946e-02
2.647440e+01 1.906157e-02
2.677940e+01 1.958774e-02
2.708790e+01 2.019302e-02
2.740000e+01 2.096157e-02
2.771560e+01 2.175932e-02
2.803490e+01 2.258747e-02
2.835790e+01 2.344715e-02
2.868450e+01 2.433948e-02
2.901500e+01 2.536676e-02
2.934920e+01 2.646358e-02
2.968730e+01 2.760789e-02
3.002930e+01 2.880166e-02
3.037530e+01 3.004708e-02
3.072520e+01 3.074625e-02
3.107910e+01 3.140878e-02
3.143720e+01 3.208570e-02
3.179930e+01 3.187655e-02
3.216560e+01 3.021275e-02
3.253620e+01 2.625081e-02
3.291100e+01 2.193725e-02
3.329010e+01 1.833251e-02
3.367360e+01 1.678509e-02
3.406160e+01 1.554413e-02
3.445390e+01 1.439486e-02
3.485080e+01 1.333058e-02
3.525230e+01 1.263538e-02
3.565840e+01 1.216850e-02
3.606920e+01 1.171887e-02
3.648470e+01 1.128586e-02
3.690500e+01 1.086885e-02
3.733020e+01 1.046726e-02
3.776020e+01 9.976081e-03
3.819520e+01 9.483870e-03
3.863520e+01 9.015991e-03
3.871670e+01 8.932505e-03
3.913310e+01 8.743705e-03
3.958390e+01 8.864753e-03
4.003990e+01 9.008196e-03
4.050120e+01 9.292415e-03
4.096770e+01 9.602390e-03
4.143970e+01 9.856869e-03
4.191710e+01 9.448472e-03
4.239990e+01 9.057001e-03
4.288840e+01 8.681750e-03
4.338250e+01 8.478663e-03
4.388220e+01 8.285276e-03
4.438770e+01 8.096312e-03
4.489910e+01 7.911660e-03
4.541630e+01 7.674433e-03
4.593950e+01 7.386777e-03
4.646870e+01 7.109946e-03
4.700400e+01 6.853815e-03
4.754550e+01 6.618581e-03
4.809330e+01 6.724159e-03
4.864730e+01 6.831424e-03
4.920770e+01 7.040275e-03
4.977460e+01 7.260921e-03
5.034800e+01 7.488506e-03
5.092800e+01 7.726600e-03
5.151470e+01 8.092874e-03
5.210810e+01 8.476492e-03
5.270840e+01 8.878302e-03
5.331560e+01 9.299177e-03
5.392980e+01 9.728030e-03
5.455100e+01 1.011672e-02
5.517950e+01 1.052097e-02
5.581510e+01 1.094136e-02
5.645810e+01 1.137583e-02
5.710850e+01 1.181949e-02
5.776640e+01 1.228041e-02
5.843180e+01 1.276720e-02
5.910500e+01 1.337507e-02
5.978590e+01 1.401190e-02
6.047460e+01 1.467897e-02
6.117120e+01 1.537776e-02
6.187590e+01 1.610621e-02
6.258870e+01 1.675386e-02
6.330980e+01 1.742758e-02
6.403910e+01 1.812835e-02
6.477680e+01 1.885729e-02
6.552300e+01 1.961554e-02
6.627780e+01 2.039419e-02
6.704140e+01 2.102942e-02
6.781370e+01 2.168440e-02
6.859490e+01 2.235974e-02
6.938510e+01 2.303977e-02
7.018440e+01 2.370481e-02
7.099290e+01 2.438904e-02
7.181070e+01 2.509304e-02
7.263800e+01 2.578745e-02
7.347480e+01 2.638755e-02
7.432120e+01 2.700160e-02
7.517740e+01 2.762999e-02
7.604340e+01 2.803780e-02
7.691940e+01 2.840999e-02
7.780550e+01 2.878713e-02
7.870180e+01 2.916927e-02
7.960850e+01 2.955647e-02
8.052560e+01 2.994885e-02
8.145320e+01 3.034641e-02
8.239150e+01 3.046944e-02
8.334070e+01 3.057529e-02
8.430080e+01 3.068154e-02
8.527190e+01 3.078814e-02
8.625420e+01 3.089510e-02
8.724790e+01 3.100250e-02
8.825290e+01 3.111020e-02
8.926960e+01 3.121830e-02
9.029800e+01 3.128932e-02
9.133820e+01 3.129081e-02
9.239040e+01 3.129226e-02
9.345480e+01 3.129371e-02
9.453130e+01 3.129512e-02
9.562030e+01 3.129659e-02
9.672190e+01 3.129810e-02
9.783610e+01 3.129949e-02
9.896320e+01 3.130099e-02
1.001030e+02 3.123943e-02
1.012560e+02 3.100468e-02
1.024230e+02 3.077190e-02
1.036030e+02 3.054069e-02
1.047960e+02 3.031110e-02
1.060030e+02 3.008330e-02
1.072250e+02 2.985748e-02
1.084600e+02 2.963307e-02
1.097090e+02 2.941030e-02
1.109730e+02 2.918935e-02
1.122520e+02 2.897013e-02
1.135450e+02 2.875668e-02
1.148530e+02 2.856249e-02
1.161760e+02 2.836973e-02
1.175140e+02 2.817799e-02
1.188680e+02 2.798788e-02
1.202370e+02 2.779878e-02
1.216220e+02 2.761104e-02
1.230230e+02 2.742477e-02
1.244410e+02 2.723982e-02
1.258740e+02 2.705565e-02
1.273240e+02 2.687304e-02
1.287910e+02 2.687214e-02
1.302750e+02 2.687219e-02
1.317750e+02 2.687211e-02
1.332930e+02 2.687209e-02
1.348290e+02 2.687214e-02
1.363820e+02 2.687205e-02
1.379530e+02 2.687202e-02
1.395430e+02 2.687224e-02
1.411500e+02 2.687213e-02
1.427760e+02 2.687207e-02
1.444210e+02 2.687226e-02
1.460850e+02 2.687231e-02
1.477670e+02 2.687203e-02
1.494700e+02 2.687216e-02
1.511920e+02 2.685478e-02
1.529330e+02 2.683605e-02
1.546950e+02 2.681762e-02
1.564770e+02 2.679897e-02
1.582800e+02 2.678063e-02
1.601030e+02 2.676191e-02
1.619470e+02 2.676646e-02
1.638130e+02 2.684790e-02
1.657000e+02 2.692936e-02
1.676090e+02 2.701133e-02
1.695400e+02 2.709344e-02
1.714930e+02 2.717584e-02
1.734690e+02 2.724357e-02
1.754670e+02 2.729725e-02
1.774880e+02 2.735085e-02
1.795330e+02 2.740468e-02
1.816010e+02 2.745857e-02
1.836930e+02 2.751265e-02
1.858090e+02 2.756675e-02
1.879500e+02 2.762949e-02
1.901150e+02 2.770302e-02
1.923050e+02 2.777671e-02
1.945200e+02 2.785055e-02
1.967610e+02 2.792464e-02
1.990280e+02 2.799896e-02
2.013210e+02 2.807350e-02
2.036400e+02 2.814808e-02
2.059860e+02 2.826360e-02
2.083590e+02 2.840719e-02
2.107590e+02 2.855142e-02
2.131870e+02 2.869640e-02
2.156430e+02 2.884210e-02
2.181270e+02 2.898847e-02
2.206400e+02 2.913563e-02
2.231820e+02 2.928370e-02
2.257530e+02 2.943233e-02
2.283530e+02 2.958165e-02
2.309840e+02 2.949871e-02
2.336450e+02 2.941526e-02
2.363360e+02 2.933195e-02
2.390590e+02 2.924893e-02
2.418130e+02 2.916625e-02
2.445990e+02 2.908380e-02
2.474160e+02 2.913903e-02
2.502670e+02 2.921541e-02
2.531500e+02 2.929192e-02
2.560660e+02 2.936867e-02
2.590160e+02 2.944561e-02
2.620000e+02 2.958196e-02
2.650180e+02 2.976604e-02
2.680710e+02 2.995133e-02
2.711590e+02 3.013781e-02
2.742830e+02 3.032554e-02
2.774420e+02 3.051426e-02
2.806380e+02 3.070416e-02
2.838710e+02 3.089532e-02
2.871420e+02 3.108782e-02
2.904490e+02 3.128128e-02
2.937950e+02 3.147600e-02
2.971800e+02 3.167205e-02
3.006030e+02 3.186918e-02
3.040660e+02 3.216871e-02
3.075690e+02 3.251746e-02
3.111120e+02 3.286998e-02
3.146960e+02 3.322635e-02
3.183210e+02 3.358643e-02
3.219880e+02 3.395045e-02
3.256980e+02 3.431865e-02
3.294500e+02 3.469065e-02
3.332450e+02 3.506209e-02
3.370840e+02 3.542747e-02
3.409670e+02 3.579668e-02
3.448950e+02 3.616966e-02
3.488680e+02 3.654654e-02
3.528870e+02 3.692742e-02
3.569520e+02 3.731228e-02
3.610640e+02 3.770106e-02
3.652240e+02 3.809400e-02
3.694310e+02 3.842356e-02
3.736870e+02 3.875167e-02
3.779920e+02 3.908244e-02
3.823460e+02 3.941617e-02
3.867510e+02 3.975270e-02
3.912060e+02 4.009189e-02
3.957130e+02 4.021246e-02
4.002710e+02 4.000245e-02
4.048820e+02 3.979372e-02
4.095470e+02 4.017577e-02
4.142650e+02 4.076713e-02
4.190370e+02 4.136709e-02
4.238640e+02 4.197598e-02
4.287470e+02 4.259381e-02
4.336860e+02 4.322063e-02
4.386820e+02 4.385679e-02
4.437360e+02 4.450229e-02
4.488480e+02 4.515719e-02
4.540180e+02 4.582173e-02
4.592480e+02 4.649620e-02
4.645390e+02 4.718059e-02
4.698900e+02 4.787487e-02
4.753030e+02 4.852861e-02
4.807790e+02 4.916585e-02
4.863170e+02 4.981166e-02
4.919200e+02 5.046582e-02
4.975870e+02 5.112863e-02
5.033190e+02 5.180005e-02
5.091170e+02 5.248042e-02
5.149820e+02 5.316967e-02
5.209150e+02 5.386793e-02
5.269150e+02 5.470261e-02
5.329850e+02 5.556687e-02
5.391250e+02 5.644442e-02
5.453360e+02 5.733619e-02
5.516180e+02 5.824184e-02
5.579730e+02 5.916195e-02
5.644010e+02 6.009641e-02
5.709030e+02 6.096467e-02
5.774790e+02 6.164575e-02
5.841320e+02 6.240703e-02
5.908610e+02 6.353807e-02
5.976680e+02 6.468971e-02
6.045530e+02 6.586222e-02
6.115170e+02 6.705594e-02
6.185620e+02 6.827168e-02
6.256880e+02 6.950942e-02
6.328950e+02 7.079457e-02
6.401860e+02 7.210953e-02
6.475610e+02 7.350252e-02
6.550210e+02 7.494083e-02
6.625670e+02 7.640768e-02
6.701990e+02 7.790317e-02
6.779200e+02 7.935065e-02
6.857300e+02 8.074752e-02
6.936290e+02 8.216581e-02
7.016200e+02 8.360556e-02
7.097020e+02 8.514058e-02
7.178780e+02 8.684759e-02
7.261480e+02 8.858839e-02
7.345130e+02 9.036488e-02
7.429750e+02 9.217700e-02
7.515340e+02 9.402570e-02
7.601910e+02 9.591168e-02
7.689490e+02 9.784551e-02
7.778070e+02 9.981856e-02
7.867670e+02 1.018771e-01
7.958310e+02 1.039861e-01
8.049980e+02 1.061393e-01
8.142720e+02 1.083383e-01
8.236520e+02 1.105821e-01
8.331410e+02 1.128729e-01
8.427380e+02 1.152206e-01
8.524470e+02 1.176272e-01
8.622670e+02 1.201033e-01
8.722000e+02 1.226550e-01
8.822480e+02 1.252610e-01
8.924110e+02 1.279234e-01
9.026920e+02 1.306421e-01
9.130910e+02 1.334189e-01
9.236090e+02 1.362609e-01
9.342490e+02 1.392691e-01
9.450120e+02 1.423434e-01
9.558980e+02 1.455390e-01
9.669100e+02 1.488061e-01
9.780490e+02 1.521478e-01
9.893160e+02 1.555647e-01
1.000710e+03 1.590726e-01
1.012240e+03 1.626635e-01
1.023900e+03 1.663956e-01
1.035700e+03 1.702426e-01
1.047630e+03 1.742116e-01
1.059700e+03 1.783013e-01
1.071900e+03 1.824857e-01
1.084250e+03 1.867724e-01
1.096740e+03 1.911590e-01
1.109380e+03 1.956518e-01
1.122160e+03 2.002495e-01
1.135080e+03 2.049541e-01
1.148160e+03 2.097724e-01
1.161390e+03 2.147064e-01
1.174770e+03 2.197567e-01
1.188300e+03 2.249302e-01
1.201990e+03 2.302265e-01
1.215840e+03 2.356475e-01
1.229840e+03 2.411937e-01
1.244010e+03 2.469373e-01
1.258340e+03 2.528368e-01
1.272840e+03 2.590086e-01
1.287500e+03 2.653919e-01
1.302330e+03 2.719367e-01
1.317330e+03 2.786441e-01
1.332510e+03 2.855194e-01
1.347860e+03 2.925659e-01
1.363390e+03 2.997868e-01
1.379090e+03 3.071882e-01
1.394980e+03 3.147756e-01
1.411050e+03 3.225501e-01
1.427310e+03 3.305176e-01
1.443750e+03 3.386946e-01
1.460380e+03 3.470759e-01
1.477200e+03 3.556885e-01
1.494220e+03 3.645174e-01
1.511430e+03 3.736750e-01
1.528850e+03 3.830755e-01
1.546460e+03 3.927154e-01
1.564270e+03 4.025942e-01
1.582290e+03 4.127257e-01
1.600520e+03 4.231145e-01
1.618960e+03 4.337690e-01
1.637610e+03 4.446946e-01
1.656470e+03 4.558928e-01
1.675560e+03 4.673750e-01
1.694860e+03 4.791539e-01
1.714380e+03 4.912464e-01
1.734130e+03 5.036465e-01
1.735000e+03 5.041963e-01
1.735200e+03 2.271631e-01
1.754110e+03 1.948589e-01
1.774320e+03 1.656991e-01
1.794760e+03 1.409024e-01
1.815430e+03 1.202905e-01
1.836350e+03 1.237105e-01
1.857500e+03 1.272271e-01
1.878900e+03 1.308444e-01
1.900540e+03 1.345644e-01
1.922440e+03 1.383925e-01
1.944580e+03 1.423298e-01
1.966980e+03 1.463792e-01
1.989640e+03 1.505447e-01
2.012570e+03 1.548114e-01
2.035750e+03 1.591981e-01
2.059200e+03 1.637289e-01
2.082920e+03 1.683879e-01
2.106920e+03 1.731823e-01
2.131190e+03 1.781142e-01
2.155740e+03 1.831815e-01
2.180570e+03 1.883982e-01
2.193900e+03 1.912337e-01
2.194100e+03 1.638074e-01
2.205690e+03 1.660363e-01
2.231100e+03 1.709867e-01
2.256810e+03 1.760838e-01
2.282800e+03 1.813317e-01
2.309100e+03 1.867406e-01
2.335700e+03 1.923068e-01
2.362610e+03 1.980345e-01
2.389830e+03 2.039346e-01
2.417360e+03 2.100137e-01
2.445210e+03 2.162716e-01
2.468600e+03 2.216153e-01
2.468800e+03 2.075997e-01
2.473370e+03 2.085707e-01
2.501870e+03 2.146829e-01
2.530690e+03 2.209737e-01
2.559840e+03 2.274517e-01
2.589330e+03 2.341212e-01
2.619160e+03 2.409828e-01
2.649330e+03 2.480373e-01
2.679850e+03 2.553000e-01
2.707900e+03 2.620868e-01
2.708100e+03 2.519948e-01
2.710720e+03 2.525643e-01
2.741950e+03 2.594066e-01
2.773540e+03 2.664388e-01
2.805490e+03 2.736799e-01
2.837810e+03 2.811421e-01
2.870500e+03 2.888347e-01
2.903570e+03 2.967582e-01
2.937010e+03 3.049207e-01
2.970850e+03 3.133273e-01
3.005070e+03 3.219897e-01
3.039690e+03 3.309176e-01
3.074710e+03 3.401049e-01
3.110130e+03 3.495700e-01
3.145960e+03 3.593222e-01
3.182200e+03 3.693700e-01
3.218860e+03 3.797213e-01
3.255940e+03 3.903794e-01
3.293450e+03 4.013573e-01
3.331390e+03 4.126598e-01
3.369760e+03 4.242952e-01
3.408580e+03 4.362767e-01
3.447850e+03 4.486359e-01
3.487570e+03 4.613541e-01
3.527740e+03 4.744445e-01
3.568380e+03 4.879370e-01
3.609490e+03 5.018295e-01
3.651070e+03 5.161349e-01
3.693130e+03 5.308768e-01
3.735680e+03 5.460442e-01
3.778710e+03 5.616833e-01
3.822240e+03 5.777843e-01
3.866270e+03 5.943264e-01
3.910810e+03 6.114102e-01
3.955870e+03 6.289943e-01
4.001440e+03 6.470882e-01
4.047530e+03 6.657300e-01
4.094160e+03 6.849285e-01
4.141320e+03 7.047004e-01
4.189030e+03 7.250630e-01
4.237290e+03 7.460309e-01
4.286100e+03 7.676341e-01
4.335480e+03 7.898762e-01
4.385420e+03 8.127873e-01
4.435940e+03 8.363818e-01
4.487040e+03 8.606886e-01
4.538730e+03 8.857142e-01
4.591020e+03 9.114766e-01
4.643910e+03 9.380287e-01
4.697410e+03 9.653781e-01
4.751520e+03 9.935361e-01
4.806260e+03 1.022533e+00
4.861620e+03 1.052413e+00
4.917630e+03 1.083177e+00
4.974280e+03 1.114872e+00
5.031580e+03 1.147522e+00
5.089550e+03 1.181144e+00
5.148180e+03 1.215759e+00
5.207480e+03 1.251436e+00
5.267470e+03 1.288172e+00
5.328160e+03 1.326017e+00
5.389540e+03 1.364995e+00
5.451620e+03 1.405121e+00
5.514420e+03 1.446466e+00
5.577950e+03 1.489049e+00
5.642210e+03 1.532959e+00
5.707210e+03 1.578138e+00
5.772950e+03 1.624690e+00
5.839460e+03 1.672618e+00
5.906730e+03 1.721993e+00
5.974770e+03 1.772870e+00
6.043600e+03 1.825271e+00
6.113220e+03 1.879260e+00
6.183640e+03 1.934820e+00
6.254880e+03 1.992113e+00
6.326940e+03 2.051067e+00
6.399820e+03 2.111815e+00
6.473550e+03 2.174404e+00
6.548120e+03 2.238872e+00
6.623550e+03 2.305268e+00
6.699860e+03 2.373664e+00
6.777040e+03 2.444119e+00
6.855110e+03 2.516758e+00
6.934080e+03 2.591506e+00
7.013960e+03 2.668459e+00
7.094760e+03 2.747810e+00
7.176490e+03 2.829557e+00
7.259160e+03 2.913717e+00
7.342790e+03 3.000398e+00
7.427380e+03 3.089719e+00
7.512940e+03 3.181784e+00
7.599490e+03 3.276542e+00
7.687030e+03 3.374123e+00
7.775590e+03 3.474732e+00
7.865160e+03 3.578386e+00
7.955770e+03 3.685113e+00
8.047420e+03 3.795039e+00
8.140120e+03 3.908256e+00
8.233900e+03 4.024867e+00
8.328750e+03 4.145048e+00
8.424700e+03 4.268802e+00
8.521750e+03 4.396533e+00
8.619920e+03 4.528057e+00
8.719220e+03 4.663318e+00
8.819660e+03 4.802690e+00
8.921260e+03 4.946586e+00
9.024040e+03 5.094588e+00
9.127990e+03 5.247076e+00
9.233150e+03 5.404272e+00
9.339510e+03 5.565953e+00
9.447100e+03 5.732942e+00
9.555930e+03 5.904864e+00
9.666010e+03 6.081833e+00
9.777370e+03 6.264256e+00
9.881000e+03 6.437019e+00
9.881200e+03 2.449005e+00
9.890000e+03 2.455192e+00
1.000000e+04 2.533295e+00
1.011200e+04 2.614472e+00
1.022400e+04 2.698222e+00
1.033900e+04 2.784675e+00
1.045400e+04 2.873956e+00
1.057100e+04 2.966073e+00
1.068800e+04 3.061010e+00
1.080800e+04 3.159070e+00
1.092800e+04 3.260428e+00
1.105390e+04 3.368313e+00
1.113600e+04 3.439916e+00
1.113620e+04 2.445958e+00
1.118120e+04 2.474572e+00
1.131000e+04 2.557675e+00
1.144030e+04 2.643576e+00
1.157210e+04 2.732363e+00
1.168140e+04 2.807452e+00
1.168160e+04 2.497216e+00
1.170540e+04 2.509407e+00
1.184030e+04 2.579003e+00
1.197670e+04 2.650810e+00
1.211460e+04 2.724884e+00
1.225420e+04 2.801370e+00
1.239540e+04 2.880280e+00
1.253820e+04 2.961721e+00
1.268260e+04 3.045751e+00
1.282870e+04 3.132452e+00
1.297650e+04 3.221942e+00
1.312600e+04 3.314280e+00
1.327720e+04 3.409560e+00
1.343010e+04 3.507893e+00
1.358490e+04 3.609391e+00
1.374130e+04 3.714078e+00
1.389960e+04 3.822137e+00
1.405980e+04 3.933672e+00
1.422170e+04 4.048729e+00
1.438560e+04 4.167505e+00
1.455130e+04 4.290050e+00
1.471890e+04 4.416510e+00
1.488850e+04 4.547040e+00
1.506000e+04 4.681726e+00
1.523350e+04 4.820730e+00
1.540900e+04 4.964189e+00
1.558650e+04 5.112233e+00
1.576600e+04 5.265000e+00
1.594770e+04 5.422708e+00
1.613140e+04 5.585442e+00
1.631720e+04 5.753381e+00
1.650520e+04 5.926729e+00
1.669530e+04 6.105612e+00
1.688770e+04 6.290272e+00
1.708220e+04 6.480827e+00
1.727900e+04 6.677510e+00
1.747800e+04 6.880484e+00
1.767940e+04 7.090028e+00
1.788300e+04 7.306256e+00
1.808910e+04 7.529489e+00
1.829740e+04 7.759831e+00
1.850820e+04 7.997620e+00
1.872140e+04 8.243058e+00
1.893710e+04 8.496397e+00
1.915530e+04 8.757914e+00
1.937590e+04 9.027784e+00
1.959910e+04 9.306374e+00
1.982490e+04 9.593954e+00
2.005330e+04 9.890783e+00
2.028430e+04 1.019718e+01
2.051800e+04 1.051346e+01
2.075430e+04 1.083991e+01
2.099340e+04 1.117691e+01
2.123530e+04 1.152481e+01
2.147990e+04 1.188390e+01
2.172740e+04 1.225460e+01
2.197770e+04 1.263723e+01
2.223080e+04 1.303218e+01
2.248690e+04 1.343995e+01
2.274600e+04 1.386089e+01
2.300800e+04 1.429538e+01
2.327310e+04 1.474393e+01
2.354120e+04 1.520697e+01
2.381240e+04 1.568499e+01
2.408670e+04 1.617840e+01
2.436410e+04 1.668775e+01
2.464480e+04 1.721364e+01
2.492870e+04 1.775649e+01
2.521590e+04 1.831692e+01
2.550640e+04 1.889550e+01
2.580020e+04 1.949269e+01
2.609740e+04 2.010927e+01
2.639810e+04 2.074584e+01
2.670220e+04 2.140288e+01
2.700980e+04 2.208125e+01
2.732090e+04 2.278155e+01
2.763570e+04 2.350454e+01
2.795400e+04 2.425084e+01
2.827610e+04 2.502137e+01
2.860180e+04 2.581680e+01
2.893130e+04 2.663799e+01
2.926460e+04 2.748578e+01
2.960170e+04 2.836089e+01
2.994270e+04 2.926439e+01
3.000000e+04 2.941803e+01
