# material=Tc density=11.5
# Photon Energy [eV]  Attenuation Length [um]
1.000000e+01 1.732494e-02
1.016170e+01 1.678104e-02
1.032610e+01 1.625445e-02
1.049310e+01 1.574426e-02
1.066280e+01 1.525010e-02
1.083530e+01 1.477156e-02
1.101060e+01 1.430798e-02
1.118860e+01 1.385881e-02
1.136960e+01 1.342393e-02
1.155350e+01 1.306665e-02
1.174040e+01 1.279491e-02
1.193030e+01 1.252882e-02
1.212320e+01 1.226812e-02
1.231930e+01 1.201299e-02
1.251860e+01 1.175627e-02
1.272100e+01 1.149639e-02
1.292680e+01 1.124234e-02
1.313590e+01 1.099393e-02
1.334830e+01 1.076656e-02
1.356420e+01 1.057661e-02
1.378360e+01 1.038999e-02
1.400660e+01 1.020674e-02
1.423310e+01 1.002662e-02
1.446330e+01 9.859467e-03
1.469730e+01 9.705129e-03
1.493500e+01 9.553143e-03
1.517650e+01 9.403531e-03
1.542200e+01 9.256293e-03
1.567140e+01 9.148928e-03
1.592490e+01 9.089420e-03
1.618250e+01 9.030318e-03
1.644420e+01 8.971561e-03
1.671020e+01 8.913225e-03
1.698050e+01 8.856074e-03
1.725510e+01 8.803935e-03
1.753420e+01 8.752137e-03
1.781780e+01 8.700624e-03
1.810600e+01 8.649437e-03
1.839890e+01 8.598572e-03
1.869640e+01 8.547918e-03
1.899880e+01 8.497628e-03
1.930610e+01 8.533227e-03
1.961840e+01 8.569349e-03
1.993570e+01 8.605377e-03
2.025820e+01 8.639381e-03
2.058580e+01 8.673445e-03
2.091880e+01 8.707711e-03
2.125710e+01 8.742065e-03
2.160090e+01 8.776568e-03
2.195030e+01 8.811224e-03
2.230530e+01 8.845995e-03
2.266610e+01 8.886941e-03
2.303270e+01 8.983042e-03
2.340530e+01 9.080217e-03
2.378380e+01 9.178371e-03
2.416850e+01 9.277627e-03
2.455940e+01 9.377962e-03
2.495660e+01 9.518343e-03
2.536030e+01 9.691002e-03
2.577050e+01 9.866762e-03
2.618730e+01 1.004572e-02
2.661090e+01 1.022792e-02
2.704130e+01 1.041342e-02
2.747860e+01 1.064710e-02
2.792310e+01 1.094735e-02
2.837470e+01 1.125602e-02
2.883370e+01 1.157342e-02
2.930000e+01 1.189974e-02
2.977390e+01 1.224212e-02
3.025550e+01 1.272908e-02
3.074490e+01 1.323541e-02
3.124210e+01 1.376183e-02
3.174750e+01 1.432001e-02
3.226090e+01 1.495493e-02
3.278270e+01 1.561803e-02
3.331300e+01 1.634034e-02
3.385180e+01 1.718138e-02
3.439930e+01 1.803223e-02
3.495570e+01 1.868263e-02
3.552110e+01 1.927044e-02
3.609560e+01 1.947080e-02
3.667940e+01 1.938776e-02
3.727270e+01 1.897600e-02
3.787550e+01 1.797389e-02
3.848820e+01 1.663780e-02
3.911070e+01 1.540102e-02
3.974320e+01 1.425614e-02
4.038610e+01 1.313334e-02
4.103930e+01 1.188318e-02
4.170310e+01 1.075206e-02
4.237760e+01 9.728593e-03
4.306300e+01 8.890888e-03
4.375950e+01 8.371238e-03
4.446730e+01 7.943763e-03
4.518650e+01 7.625392e-03
4.591740e+01 7.319750e-03
4.666000e+01 7.189458e-03
4.741470e+01 7.062068e-03
4.818160e+01 6.984579e-03
4.896090e+01 6.990563e-03
4.975280e+01 6.996537e-03
5.055760e+01 7.002540e-03
5.137530e+01 7.179633e-03
5.220620e+01 7.416482e-03
5.305060e+01 7.661177e-03
5.390870e+01 7.913938e-03
5.478060e+01 8.278131e-03
5.566670e+01 8.905585e-03
5.656700e+01 9.561192e-03
5.748200e+01 1.013853e-02
5.841170e+01 1.075063e-02
5.935640e+01 1.139985e-02
6.031650e+01 1.211675e-02
6.129210e+01 1.287875e-02
6.228340e+01 1.368859e-02
6.329080e+01 1.454936e-02
6.431450e+01 1.546431e-02
6.535470e+01 1.643674e-02
6.641180e+01 1.756021e-02
6.748590e+01 1.894019e-02
6.857750e+01 2.042861e-02
6.968670e+01 2.203401e-02
7.081380e+01 2.391582e-02
7.195910e+01 2.620435e-02
7.312300e+01 2.871181e-02
7.430570e+01 3.120501e-02
7.550760e+01 3.374045e-02
7.672890e+01 3.648196e-02
7.796990e+01 3.944616e-02
7.923100e+01 4.238453e-02
8.051250e+01 4.520604e-02
8.181470e+01 4.821525e-02
8.313800e+01 5.157510e-02
8.448270e+01 5.647125e-02
8.584910e+01 6.183216e-02
8.723770e+01 6.752984e-02
8.864870e+01 7.357585e-02
9.008250e+01 8.016348e-02
9.153950e+01 8.734060e-02
9.302010e+01 9.570940e-02
9.452460e+01 1.049146e-01
9.605350e+01 1.150048e-01
9.760710e+01 1.246377e-01
9.918580e+01 1.345821e-01
1.007900e+02 1.453203e-01
1.024200e+02 1.557685e-01
1.040770e+02 1.620006e-01
1.057600e+02 1.679521e-01
1.074710e+02 1.726678e-01
1.092090e+02 1.775149e-01
1.109750e+02 1.800502e-01
1.127700e+02 1.819190e-01
1.145940e+02 1.826355e-01
1.164480e+02 1.821344e-01
1.183310e+02 1.816328e-01
1.202450e+02 1.810319e-01
1.221900e+02 1.792105e-01
1.241660e+02 1.774049e-01
1.261750e+02 1.756202e-01
1.282150e+02 1.738509e-01
1.302890e+02 1.711611e-01
1.323970e+02 1.684227e-01
1.345380e+02 1.657267e-01
1.367140e+02 1.630744e-01
1.389250e+02 1.604643e-01
1.411720e+02 1.589342e-01
1.434560e+02 1.576279e-01
1.457760e+02 1.563313e-01
1.481340e+02 1.550919e-01
1.505300e+02 1.538859e-01
1.529640e+02 1.526883e-01
1.554390e+02 1.515019e-01
1.579530e+02 1.503232e-01
1.605070e+02 1.491537e-01
1.631030e+02 1.489524e-01
1.657420e+02 1.489795e-01
1.684220e+02 1.490048e-01
1.711460e+02 1.490312e-01
1.739150e+02 1.493634e-01
1.767270e+02 1.505874e-01
1.795860e+02 1.518226e-01
1.824910e+02 1.530676e-01
1.854420e+02 1.543163e-01
1.884420e+02 1.555694e-01
1.914890e+02 1.568311e-01
1.945870e+02 1.581055e-01
1.977340e+02 1.593880e-01
2.009320e+02 1.610370e-01
2.041820e+02 1.627170e-01
2.074850e+02 1.644143e-01
2.108400e+02 1.661283e-01
2.142510e+02 1.678034e-01
2.177160e+02 1.694216e-01
2.212370e+02 1.710553e-01
2.248160e+02 1.726911e-01
2.284520e+02 1.735833e-01
2.321470e+02 1.735178e-01
2.359020e+02 1.727413e-01
2.397170e+02 1.662821e-01
2.435950e+02 1.600644e-01
2.475350e+02 1.540793e-01
2.515380e+02 1.439438e-01
2.556070e+02 1.350341e-01
2.597410e+02 1.255142e-01
2.639420e+02 1.127699e-01
2.682110e+02 9.651244e-02
2.725490e+02 8.259854e-02
2.769570e+02 7.075570e-02
2.814370e+02 6.076344e-02
2.859890e+02 5.451071e-02
2.906150e+02 4.921339e-02
2.953150e+02 4.625260e-02
3.000920e+02 4.347006e-02
3.049450e+02 4.144617e-02
3.098780e+02 3.976062e-02
3.148900e+02 3.829106e-02
3.199830e+02 3.733911e-02
3.251580e+02 3.654840e-02
3.304180e+02 3.618308e-02
3.357620e+02 3.583015e-02
3.411920e+02 3.552655e-02
3.467110e+02 3.522551e-02
3.523190e+02 3.492685e-02
3.580170e+02 3.479590e-02
3.638080e+02 3.495842e-02
3.696920e+02 3.512185e-02
3.756720e+02 3.528590e-02
3.817480e+02 3.543894e-02
3.879220e+02 3.558648e-02
3.941970e+02 3.573477e-02
4.005730e+02 3.588373e-02
4.070520e+02 3.603328e-02
4.136350e+02 3.651992e-02
4.203260e+02 3.707964e-02
4.271240e+02 3.764768e-02
4.340320e+02 3.822446e-02
4.410520e+02 3.868690e-02
4.481860e+02 3.895011e-02
4.554350e+02 3.943995e-02
4.628020e+02 4.031011e-02
4.702870e+02 4.116869e-02
4.778940e+02 4.204562e-02
4.856230e+02 4.294091e-02
4.934780e+02 4.385551e-02
5.014590e+02 4.479023e-02
5.095700e+02 4.574390e-02
5.178120e+02 4.668223e-02
5.261870e+02 4.751320e-02
5.346980e+02 4.811545e-02
5.433460e+02 4.860339e-02
5.521340e+02 4.909694e-02
5.610650e+02 5.026699e-02
5.701390e+02 5.180347e-02
5.793610e+02 5.344348e-02
5.887320e+02 5.512422e-02
5.982540e+02 5.685060e-02
6.079300e+02 5.863207e-02
6.177630e+02 6.046913e-02
6.277550e+02 6.236722e-02
6.379080e+02 6.436618e-02
6.482260e+02 6.649869e-02
6.587110e+02 6.874934e-02
6.693650e+02 7.107746e-02
6.801910e+02 7.333174e-02
6.911930e+02 7.553607e-02
7.023720e+02 7.778448e-02
7.137330e+02 8.026376e-02
7.252770e+02 8.293858e-02
7.370080e+02 8.569796e-02
7.489280e+02 8.855034e-02
7.610420e+02 9.149875e-02
7.733510e+02 9.455780e-02
7.858590e+02 9.776291e-02
7.985700e+02 1.011145e-01
8.114860e+02 1.045808e-01
8.246110e+02 1.081652e-01
8.379490e+02 1.118734e-01
8.515020e+02 1.157292e-01
8.652740e+02 1.197434e-01
8.792690e+02 1.239200e-01
8.934910e+02 1.282422e-01
9.079430e+02 1.327160e-01
9.226280e+02 1.373459e-01
9.375510e+02 1.422783e-01
9.527150e+02 1.474253e-01
9.681240e+02 1.527939e-01
9.837830e+02 1.583568e-01
9.996950e+02 1.641327e-01
1.015860e+03 1.701330e-01
1.032290e+03 1.764674e-01
1.048990e+03 1.830776e-01
1.065960e+03 1.899786e-01
1.083200e+03 1.971387e-01
1.100720e+03 2.045686e-01
1.118520e+03 2.122796e-01
1.136610e+03 2.202834e-01
1.155000e+03 2.285904e-01
1.173680e+03 2.372066e-01
1.192660e+03 2.461475e-01
1.211950e+03 2.554269e-01
1.231550e+03 2.650545e-01
1.251470e+03 2.750389e-01
1.271720e+03 2.853925e-01
1.292290e+03 2.961235e-01
1.313190e+03 3.072633e-01
1.334430e+03 3.188213e-01
1.356010e+03 3.308111e-01
1.377940e+03 3.432549e-01
1.400230e+03 3.561661e-01
1.422880e+03 3.695571e-01
1.445890e+03 3.834521e-01
1.469280e+03 3.979246e-01
1.493040e+03 4.130250e-01
1.517190e+03 4.290665e-01
1.541730e+03 4.457839e-01
1.566670e+03 4.631546e-01
1.592010e+03 4.811875e-01
1.617760e+03 4.999247e-01
1.643920e+03 5.193972e-01
1.670510e+03 5.396409e-01
1.697530e+03 5.606650e-01
1.724990e+03 5.824942e-01
1.752890e+03 6.054290e-01
1.781240e+03 6.293650e-01
1.810050e+03 6.543333e-01
1.839320e+03 6.802859e-01
1.869070e+03 7.072558e-01
1.899300e+03 7.352637e-01
1.930020e+03 7.644406e-01
1.961240e+03 7.947645e-01
1.992960e+03 8.262284e-01
2.025200e+03 8.586793e-01
2.057950e+03 8.929988e-01
2.091240e+03 9.287701e-01
2.125060e+03 9.660378e-01
2.159430e+03 1.004864e+00
2.194360e+03 1.045323e+00
2.229850e+03 1.087488e+00
2.265920e+03 1.131436e+00
2.302570e+03 1.177231e+00
2.339810e+03 1.224986e+00
2.377660e+03 1.274755e+00
2.416110e+03 1.326649e+00
2.455190e+03 1.380757e+00
2.494900e+03 1.437185e+00
2.535260e+03 1.496036e+00
2.576260e+03 1.557406e+00
2.617930e+03 1.621439e+00
2.660270e+03 1.688241e+00
2.676800e+03 1.714761e+00
2.677000e+03 4.897534e-01
2.703300e+03 5.018000e-01
2.747030e+03 5.222193e-01
2.791460e+03 5.434761e-01
2.793100e+03 5.442716e-01
2.793300e+03 3.953721e-01
2.836610e+03 4.081347e-01
2.882490e+03 4.218787e-01
2.929110e+03 4.360672e-01
2.976480e+03 4.507439e-01
3.024630e+03 4.659093e-01
3.042400e+03 4.715736e-01
3.042600e+03 4.281213e-01
3.073550e+03 4.387285e-01
3.123260e+03 4.560826e-01
3.173780e+03 4.742002e-01
3.225110e+03 4.931375e-01
3.277270e+03 5.129133e-01
3.330280e+03 5.335722e-01
3.384150e+03 5.551781e-01
3.438880e+03 5.777099e-01
3.494500e+03 6.012742e-01
3.551020e+03 6.258946e-01
3.608460e+03 6.516035e-01
3.666820e+03 6.784705e-01
3.726130e+03 7.065056e-01
3.786400e+03 7.358252e-01
3.847640e+03 7.664973e-01
3.909870e+03 7.984921e-01
3.973110e+03 8.319276e-01
4.037380e+03 8.668595e-01
4.102680e+03 9.033617e-01
4.169030e+03 9.414985e-01
4.236460e+03 9.813415e-01
4.304980e+03 1.022977e+00
4.374620e+03 1.066494e+00
4.445370e+03 1.111962e+00
4.517270e+03 1.159465e+00
4.590330e+03 1.209105e+00
4.664580e+03 1.260986e+00
4.740030e+03 1.315197e+00
4.816690e+03 1.371828e+00
4.894600e+03 1.431022e+00
4.973770e+03 1.492906e+00
5.054210e+03 1.557545e+00
5.135960e+03 1.625120e+00
5.219030e+03 1.695721e+00
5.303440e+03 1.769517e+00
5.389220e+03 1.846632e+00
5.476390e+03 1.927241e+00
5.564970e+03 2.011493e+00
5.654980e+03 2.099526e+00
5.746440e+03 2.191569e+00
5.839390e+03 2.287741e+00
5.933830e+03 2.388289e+00
6.029810e+03 2.493383e+00
6.127330e+03 2.603193e+00
6.226440e+03 2.718001e+00
6.327150e+03 2.837948e+00
6.429480e+03 2.963356e+00
6.533480e+03 3.094479e+00
6.639150e+03 3.231535e+00
6.746540e+03 3.374791e+00
6.855650e+03 3.524509e+00
6.966540e+03 3.681050e+00
7.079220e+03 3.844614e+00
7.193720e+03 4.015616e+00
7.310070e+03 4.194471e+00
7.428310e+03 4.381215e+00
7.548450e+03 4.576689e+00
7.670540e+03 4.780956e+00
7.794610e+03 4.994420e+00
7.920680e+03 5.217638e+00
8.048790e+03 5.450988e+00
8.178980e+03 5.694830e+00
8.311260e+03 5.949810e+00
8.445690e+03 6.216190e+00
8.582290e+03 6.495196e+00
8.721110e+03 6.786438e+00
8.862160e+03 7.091075e+00
9.005500e+03 7.409651e+00
9.151160e+03 7.742529e+00
9.299170e+03 8.090368e+00
9.449580e+03 8.453996e+00
9.602420e+03 8.834626e+00
9.757730e+03 9.232456e+00
9.915550e+03 9.648192e+00
1.007590e+04 1.008298e+01
1.023890e+04 1.053759e+01
1.040450e+04 1.101288e+01
1.057280e+04 1.150987e+01
1.074380e+04 1.202944e+01
1.091760e+04 1.257279e+01
1.109420e+04 1.314091e+01
1.127360e+04 1.373483e+01
1.145590e+04 1.435585e+01
1.164120e+04 1.500534e+01
1.182950e+04 1.568452e+01
1.202080e+04 1.639457e+01
1.221530e+04 1.713731e+01
1.241280e+04 1.791377e+01
1.261360e+04 1.872587e+01
1.281760e+04 1.957504e+01
1.302500e+04 2.046338e+01
1.323560e+04 2.139204e+01
1.344970e+04 2.236348e+01
1.366720e+04 2.337933e+01
1.388830e+04 2.444197e+01
1.411290e+04 2.555318e+01
1.434120e+04 2.671586e+01
1.457310e+04 2.793153e+01
1.480890e+04 2.920353e+01
1.504840e+04 3.053379e+01
1.529180e+04 3.192548e+01
1.553910e+04 3.338121e+01
1.579040e+04 3.490420e+01
1.604580e+04 3.649761e+01
1.630540e+04 3.816486e+01
1.656910e+04 3.990905e+01
1.683710e+04 4.173412e+01
1.710940e+04 4.364380e+01
1.738610e+04 4.564209e+01
1.766740e+04 4.773372e+01
1.795310e+04 4.992222e+01
1.824350e+04 5.221301e+01
1.853860e+04 5.461074e+01
1.883840e+04 5.712027e+01
1.914310e+04 5.974742e+01
1.945270e+04 6.249758e+01
1.976740e+04 6.537736e+01
2.008710e+04 6.839206e+01
2.041200e+04 7.154904e+01
2.074210e+04 7.485484e+01
2.104390e+04 7.796154e+01
2.104410e+04 1.165559e+01
2.107760e+04 1.170285e+01
2.141850e+04 1.219012e+01
2.176500e+04 1.269984e+01
2.211700e+04 1.323298e+01
2.247470e+04 1.379068e+01
2.283820e+04 1.437409e+01
2.320760e+04 1.498441e+01
2.358300e+04 1.562289e+01
2.396440e+04 1.629085e+01
2.435200e+04 1.698966e+01
2.474590e+04 1.772082e+01
2.514620e+04 1.848585e+01
2.555290e+04 1.928625e+01
2.596620e+04 2.012379e+01
2.638610e+04 2.100013e+01
2.681290e+04 2.191718e+01
2.724660e+04 2.287688e+01
2.768730e+04 2.388118e+01
2.813510e+04 2.493217e+01
2.859020e+04 2.603227e+01
2.905260e+04 2.718346e+01
2.952250e+04 2.838833e+01
3.000000e+04 2.964954e+01
