# material=Te density=6.24
# Photon Energy [eV]  Attenuation Length [um]
1.000000e+01 5.008518e-03
1.016170e+01 5.076864e-03
1.032610e+01 5.146179e-03
1.049310e+01 5.216407e-03
1.066280e+01 5.287603e-03
1.083530e+01 5.385796e-03
1.101060e+01 5.502932e-03
1.118860e+01 5.622542e-03
1.136960e+01 5.744819e-03
1.155350e+01 5.882643e-03
1.174040e+01 6.030312e-03
1.193030e+01 6.181672e-03
1.212320e+01 6.340427e-03
1.231930e+01 6.513155e-03
1.251860e+01 6.690603e-03
1.272100e+01 6.872815e-03
1.292680e+01 7.054221e-03
1.313590e+01 7.237345e-03
1.334830e+01 7.425169e-03
1.356420e+01 7.617924e-03
1.378360e+01 8.049405e-03
1.400660e+01 8.539042e-03
1.423310e+01 9.030969e-03
1.446330e+01 9.530778e-03
1.469730e+01 1.009719e-02
1.493500e+01 1.073214e-02
1.517650e+01 1.140698e-02
1.542200e+01 1.207100e-02
1.567140e+01 1.276762e-02
1.592490e+01 1.345221e-02
1.618250e+01 1.401340e-02
1.644420e+01 1.459795e-02
1.671020e+01 1.520695e-02
1.698050e+01 1.588989e-02
1.725510e+01 1.672470e-02
1.753420e+01 1.760342e-02
1.781780e+01 1.852832e-02
1.810600e+01 1.949391e-02
1.839890e+01 2.050179e-02
1.869640e+01 2.156157e-02
1.899880e+01 2.267621e-02
1.930610e+01 2.385726e-02
1.961840e+01 2.515226e-02
1.993570e+01 2.651747e-02
2.025820e+01 2.858046e-02
2.058580e+01 3.108474e-02
2.091880e+01 3.360536e-02
2.125710e+01 3.627195e-02
2.160090e+01 3.863994e-02
2.195030e+01 4.116263e-02
2.230530e+01 4.409653e-02
2.266610e+01 4.737572e-02
2.303270e+01 5.217690e-02
2.340530e+01 5.766069e-02
2.378380e+01 6.130224e-02
2.416850e+01 6.517405e-02
2.455940e+01 6.966254e-02
2.495660e+01 7.564815e-02
2.536030e+01 8.239811e-02
2.577050e+01 9.021391e-02
2.618730e+01 9.809210e-02
2.661090e+01 1.049851e-01
2.704130e+01 1.123703e-01
2.747860e+01 1.206230e-01
2.792310e+01 1.294810e-01
2.837470e+01 1.410308e-01
2.883370e+01 1.553667e-01
2.930000e+01 1.685721e-01
2.977390e+01 1.764719e-01
3.025550e+01 1.847427e-01
3.074490e+01 1.941909e-01
3.124210e+01 2.050331e-01
3.174750e+01 2.168430e-01
3.226090e+01 2.307653e-01
3.278270e+01 2.444977e-01
3.331300e+01 2.520091e-01
3.385180e+01 2.597510e-01
3.439930e+01 2.677307e-01
3.495570e+01 2.739036e-01
3.552110e+01 2.800518e-01
3.609560e+01 2.863382e-01
3.667940e+01 2.911485e-01
3.727270e+01 2.953937e-01
3.787550e+01 2.996994e-01
3.848820e+01 3.039842e-01
3.911070e+01 3.077359e-01
3.974320e+01 3.115323e-01
4.038610e+01 3.129332e-01
4.103930e+01 3.116385e-01
4.170310e+01 2.473669e-01
4.237760e+01 1.128647e-01
4.306300e+01 5.867314e-02
4.375950e+01 6.550646e-02
4.446730e+01 7.602151e-02
4.518650e+01 8.699950e-02
4.591740e+01 9.727712e-02
4.666000e+01 9.841656e-02
4.741470e+01 8.663177e-02
4.818160e+01 7.698450e-02
4.896090e+01 7.041267e-02
4.975280e+01 6.450105e-02
5.055760e+01 5.925090e-02
5.137530e+01 5.442797e-02
5.220620e+01 4.955772e-02
5.305060e+01 4.495571e-02
5.390870e+01 4.232046e-02
5.478060e+01 3.985602e-02
5.566670e+01 3.756847e-02
5.656700e+01 3.544079e-02
5.748200e+01 3.343358e-02
5.841170e+01 3.127747e-02
5.935640e+01 2.922453e-02
6.031650e+01 2.730648e-02
6.129210e+01 2.608907e-02
6.228340e+01 2.503085e-02
6.329080e+01 2.393469e-02
6.431450e+01 2.282913e-02
6.535470e+01 2.177481e-02
6.641180e+01 2.076910e-02
6.748590e+01 2.010128e-02
6.857750e+01 1.950455e-02
6.968670e+01 1.892546e-02
7.081380e+01 1.836353e-02
7.195910e+01 1.781835e-02
7.312300e+01 1.735606e-02
7.430570e+01 1.699534e-02
7.550760e+01 1.664212e-02
7.672890e+01 1.626506e-02
7.796990e+01 1.587649e-02
7.923100e+01 1.551701e-02
8.051250e+01 1.526297e-02
8.181470e+01 1.501317e-02
8.313800e+01 1.477782e-02
8.448270e+01 1.456583e-02
8.584910e+01 1.435683e-02
8.723770e+01 1.433160e-02
8.864870e+01 1.433385e-02
9.008250e+01 1.433615e-02
9.153950e+01 1.433840e-02
9.302010e+01 1.434062e-02
9.452460e+01 1.452993e-02
9.605350e+01 1.478224e-02
9.760710e+01 1.503901e-02
9.918580e+01 1.530015e-02
1.007900e+02 1.581616e-02
1.024200e+02 1.653153e-02
1.040770e+02 1.727931e-02
1.057600e+02 1.845866e-02
1.074710e+02 2.040150e-02
1.092090e+02 2.254863e-02
1.109750e+02 2.492178e-02
1.127700e+02 2.754475e-02
1.145940e+02 3.044385e-02
1.164480e+02 3.506486e-02
1.183310e+02 4.120998e-02
1.202450e+02 4.843257e-02
1.221900e+02 5.692090e-02
1.241660e+02 6.679039e-02
1.261750e+02 7.757037e-02
1.282150e+02 9.008908e-02
1.302890e+02 1.046284e-01
1.323970e+02 1.215147e-01
1.345380e+02 1.411258e-01
1.367140e+02 1.639018e-01
1.389250e+02 1.903543e-01
1.411720e+02 2.210751e-01
1.434560e+02 2.514880e-01
1.457760e+02 2.778963e-01
1.481340e+02 3.070795e-01
1.505300e+02 3.282710e-01
1.529640e+02 3.329231e-01
1.554390e+02 3.376445e-01
1.579530e+02 3.424304e-01
1.605070e+02 3.456802e-01
1.631030e+02 3.437841e-01
1.657420e+02 3.418990e-01
1.684220e+02 3.400199e-01
1.711460e+02 3.381536e-01
1.739150e+02 3.323716e-01
1.767270e+02 3.249630e-01
1.795860e+02 3.177227e-01
1.824910e+02 3.085819e-01
1.854420e+02 2.993691e-01
1.884420e+02 2.904323e-01
1.914890e+02 2.817605e-01
1.945870e+02 2.733491e-01
1.977340e+02 2.651884e-01
2.009320e+02 2.591105e-01
2.041820e+02 2.532717e-01
2.074850e+02 2.475644e-01
2.108400e+02 2.419843e-01
2.142510e+02 2.365323e-01
2.177160e+02 2.312014e-01
2.212370e+02 2.272918e-01
2.248160e+02 2.246371e-01
2.284520e+02 2.220133e-01
2.321470e+02 2.194196e-01
2.359020e+02 2.168566e-01
2.397170e+02 2.143234e-01
2.435950e+02 2.118205e-01
2.475350e+02 2.101999e-01
2.515380e+02 2.093945e-01
2.556070e+02 2.085927e-01
2.597410e+02 2.077935e-01
2.639420e+02 2.069979e-01
2.682110e+02 2.062050e-01
2.725490e+02 2.055751e-01
2.769570e+02 2.067914e-01
2.814370e+02 2.080155e-01
2.859890e+02 2.092463e-01
2.906150e+02 2.104848e-01
2.953150e+02 2.117301e-01
3.000920e+02 2.129833e-01
3.049450e+02 2.142432e-01
3.098780e+02 2.155114e-01
3.148900e+02 2.167865e-01
3.199830e+02 2.180693e-01
3.251580e+02 2.193596e-01
3.304180e+02 2.224908e-01
3.357620e+02 2.258824e-01
3.411920e+02 2.293252e-01
3.467110e+02 2.328209e-01
3.523190e+02 2.363702e-01
3.580170e+02 2.399729e-01
3.638080e+02 2.436311e-01
3.696920e+02 2.473447e-01
3.756720e+02 2.511154e-01
3.817480e+02 2.551011e-01
3.879220e+02 2.629836e-01
3.941970e+02 2.711094e-01
4.005730e+02 2.794864e-01
4.070520e+02 2.881227e-01
4.136350e+02 2.970244e-01
4.203260e+02 3.062027e-01
4.271240e+02 3.155894e-01
4.340320e+02 3.230013e-01
4.410520e+02 3.305872e-01
4.481860e+02 3.383513e-01
4.554350e+02 3.462975e-01
4.628020e+02 3.544314e-01
4.702870e+02 3.627546e-01
4.778940e+02 3.712742e-01
4.856230e+02 3.799938e-01
4.934780e+02 3.884213e-01
5.014590e+02 3.934490e-01
5.095700e+02 3.985427e-01
5.178120e+02 4.037018e-01
5.261870e+02 4.089276e-01
5.346980e+02 4.075990e-01
5.433460e+02 4.016609e-01
5.521340e+02 3.958103e-01
5.610650e+02 3.756235e-01
5.701390e+02 3.458153e-01
5.729000e+02 3.373137e-01
5.731000e+02 6.907119e-02
5.793610e+02 7.116363e-02
5.887320e+02 7.437009e-02
5.982540e+02 7.772100e-02
6.079300e+02 8.122263e-02
6.177630e+02 8.488225e-02
6.277550e+02 8.870670e-02
6.379080e+02 9.217005e-02
6.482260e+02 9.491819e-02
6.587110e+02 9.774798e-02
6.693650e+02 1.006624e-01
6.801910e+02 1.036635e-01
6.911930e+02 1.067542e-01
7.023720e+02 1.105206e-01
7.137330e+02 1.144806e-01
7.252770e+02 1.185820e-01
7.370080e+02 1.228309e-01
7.489280e+02 1.272314e-01
7.610420e+02 1.313260e-01
7.733510e+02 1.348783e-01
7.858590e+02 1.385270e-01
7.985700e+02 1.422496e-01
8.114860e+02 1.415344e-01
8.246110e+02 1.408228e-01
8.379490e+02 1.401147e-01
8.515020e+02 1.403954e-01
8.652740e+02 1.442321e-01
8.792690e+02 1.481736e-01
8.934910e+02 1.522225e-01
9.079430e+02 1.565708e-01
9.226280e+02 1.611597e-01
9.375510e+02 1.658832e-01
9.527150e+02 1.707452e-01
9.681240e+02 1.746105e-01
9.837830e+02 1.783164e-01
9.996950e+02 1.823274e-01
1.015860e+03 1.868358e-01
1.032290e+03 1.936206e-01
1.048990e+03 2.007180e-01
1.065960e+03 2.081291e-01
1.083200e+03 2.158135e-01
1.100720e+03 2.237815e-01
1.118520e+03 2.320437e-01
1.136610e+03 2.406089e-01
1.155000e+03 2.494939e-01
1.173680e+03 2.587063e-01
1.192660e+03 2.682548e-01
1.211950e+03 2.781579e-01
1.231550e+03 2.884282e-01
1.251470e+03 2.990679e-01
1.271720e+03 3.100938e-01
1.292290e+03 3.215160e-01
1.313190e+03 3.333584e-01
1.334430e+03 3.456368e-01
1.356010e+03 3.583644e-01
1.377940e+03 3.715599e-01
1.400230e+03 3.852447e-01
1.422880e+03 3.994346e-01
1.445890e+03 4.141456e-01
1.469280e+03 4.294620e-01
1.493040e+03 4.454443e-01
1.517190e+03 4.624620e-01
1.541730e+03 4.801922e-01
1.566670e+03 4.985987e-01
1.592010e+03 5.177132e-01
1.617760e+03 5.375626e-01
1.643920e+03 5.581751e-01
1.670510e+03 5.795791e-01
1.697530e+03 6.018006e-01
1.724990e+03 6.248743e-01
1.752890e+03 6.493627e-01
1.781240e+03 6.750039e-01
1.810050e+03 7.018261e-01
1.839320e+03 7.297168e-01
1.869070e+03 7.587212e-01
1.899300e+03 7.888843e-01
1.930020e+03 8.202369e-01
1.961240e+03 8.528300e-01
1.992960e+03 8.867138e-01
2.025200e+03 9.214753e-01
2.057950e+03 9.585821e-01
2.091240e+03 9.972792e-01
2.125060e+03 1.037633e+00
2.159430e+03 1.079652e+00
2.194360e+03 1.123508e+00
2.229850e+03 1.169276e+00
2.265920e+03 1.216949e+00
2.302570e+03 1.266686e+00
2.339810e+03 1.318442e+00
2.377660e+03 1.372490e+00
2.416110e+03 1.428885e+00
2.455190e+03 1.487556e+00
2.494900e+03 1.548870e+00
2.535260e+03 1.612660e+00
2.576260e+03 1.679260e+00
2.617930e+03 1.748665e+00
2.660270e+03 1.821001e+00
2.703300e+03 1.896441e+00
2.747030e+03 1.975092e+00
2.791460e+03 2.057076e+00
2.836610e+03 2.142562e+00
2.882490e+03 2.231669e+00
2.929110e+03 2.324583e+00
2.976480e+03 2.421419e+00
3.024630e+03 2.522393e+00
3.073550e+03 2.627611e+00
3.123260e+03 2.737346e+00
3.173780e+03 2.851727e+00
3.225110e+03 2.970960e+00
3.277270e+03 3.095259e+00
3.330280e+03 3.224843e+00
3.384150e+03 3.359895e+00
3.438880e+03 3.500703e+00
3.494500e+03 3.647423e+00
3.551020e+03 3.800438e+00
3.608460e+03 3.959922e+00
3.666820e+03 4.126128e+00
3.726130e+03 4.299384e+00
3.786400e+03 4.479937e+00
3.847640e+03 4.668156e+00
3.909870e+03 4.864351e+00
3.973110e+03 5.068911e+00
4.037380e+03 5.281995e+00
4.102680e+03 5.504110e+00
4.169030e+03 5.735703e+00
4.236460e+03 5.977116e+00
4.304980e+03 6.228625e+00
4.341300e+03 6.364495e+00
4.341500e+03 1.857091e+00
4.374620e+03 1.893864e+00
4.445370e+03 1.973908e+00
4.517270e+03 2.057305e+00
4.590330e+03 2.144256e+00
4.611900e+03 2.170333e+00
4.612100e+03 1.582407e+00
4.664580e+03 1.629463e+00
4.740030e+03 1.698618e+00
4.816690e+03 1.770695e+00
4.894600e+03 1.845878e+00
4.939100e+03 1.889673e+00
4.939300e+03 1.661149e+00
4.973770e+03 1.689309e+00
5.054210e+03 1.756115e+00
5.135960e+03 1.825932e+00
5.219030e+03 1.898921e+00
5.303440e+03 1.975199e+00
5.389220e+03 2.054930e+00
5.476390e+03 2.138251e+00
5.564970e+03 2.225351e+00
5.654980e+03 2.316356e+00
5.746440e+03 2.411487e+00
5.839390e+03 2.510948e+00
5.933830e+03 2.614864e+00
6.029810e+03 2.723547e+00
6.127330e+03 2.837108e+00
6.226440e+03 2.955831e+00
6.327150e+03 3.079907e+00
6.429480e+03 3.209631e+00
6.533480e+03 3.345241e+00
6.639150e+03 3.486930e+00
6.746540e+03 3.635101e+00
6.855650e+03 3.789933e+00
6.966540e+03 3.951862e+00
7.079220e+03 4.121221e+00
7.193720e+03 4.298258e+00
7.310070e+03 4.483281e+00
7.428310e+03 4.676677e+00
7.548450e+03 4.878943e+00
7.670540e+03 5.090489e+00
7.794610e+03 5.311662e+00
7.920680e+03 5.542712e+00
8.048790e+03 5.784514e+00
8.178980e+03 6.037343e+00
8.311260e+03 6.301521e+00
8.445690e+03 6.578033e+00
8.582290e+03 6.867123e+00
8.721110e+03 7.169127e+00
8.862160e+03 7.485125e+00
9.005500e+03 7.815509e+00
9.151160e+03 8.161102e+00
9.299170e+03 8.522579e+00
9.449580e+03 8.900298e+00
9.602420e+03 9.295406e+00
9.757730e+03 9.708978e+00
9.915550e+03 1.014129e+01
1.007590e+04 1.059328e+01
1.023890e+04 1.106603e+01
1.040450e+04 1.156041e+01
1.057280e+04 1.207749e+01
1.074380e+04 1.261820e+01
1.091760e+04 1.318378e+01
1.109420e+04 1.377526e+01
1.127360e+04 1.439379e+01
1.145590e+04 1.504069e+01
1.164120e+04 1.571729e+01
1.182950e+04 1.642500e+01
1.202080e+04 1.716502e+01
1.221530e+04 1.793917e+01
1.241280e+04 1.874862e+01
1.261360e+04 1.959539e+01
1.281760e+04 2.048089e+01
1.302500e+04 2.140716e+01
1.323560e+04 2.237566e+01
1.344970e+04 2.338872e+01
1.366720e+04 2.444813e+01
1.388830e+04 2.555626e+01
1.411290e+04 2.671502e+01
1.434120e+04 2.792707e+01
1.457310e+04 2.919456e+01
1.480890e+04 3.052025e+01
1.504840e+04 3.190655e+01
1.529180e+04 3.335640e+01
1.553910e+04 3.487264e+01
1.579040e+04 3.645811e+01
1.604580e+04 3.811630e+01
1.630540e+04 3.985076e+01
1.656910e+04 4.166410e+01
1.683710e+04 4.356038e+01
1.710940e+04 4.554343e+01
1.738610e+04 4.761702e+01
1.766740e+04 4.978564e+01
1.795310e+04 5.205287e+01
1.824350e+04 5.442396e+01
1.853860e+04 5.690317e+01
1.883840e+04 5.949531e+01
1.914310e+04 6.220572e+01
1.945270e+04 6.503929e+01
1.976740e+04 6.800277e+01
2.008710e+04 7.110035e+01
2.041200e+04 7.433941e+01
2.074210e+04 7.772548e+01
2.107760e+04 8.126559e+01
2.141850e+04 8.496638e+01
2.176500e+04 8.883562e+01
2.211700e+04 9.287950e+01
2.247470e+04 9.710732e+01
2.283820e+04 1.015269e+02
2.320760e+04 1.061463e+02
2.358300e+04 1.109748e+02
2.396440e+04 1.160210e+02
2.435200e+04 1.212966e+02
2.474590e+04 1.268099e+02
2.514620e+04 1.325723e+02
2.555290e+04 1.385939e+02
2.596620e+04 1.448869e+02
2.638610e+04 1.514630e+02
2.681290e+04 1.583354e+02
2.724660e+04 1.655168e+02
2.768730e+04 1.730202e+02
2.813510e+04 1.808604e+02
2.859020e+04 1.890523e+02
2.905260e+04 1.976107e+02
2.952250e+04 2.065525e+02
3.000000e+04 2.158933e+02
