# material=Tl density=11.85
# Photon Energy [eV]  Attenuation Length [um]
1.000000e+01 2.272117e-02
1.016170e+01 2.372473e-02
1.032610e+01 2.495667e-02
1.049310e+01 2.695665e-02
1.066280e+01 2.980652e-02
1.083530e+01 3.187205e-02
1.101060e+01 3.435835e-02
1.118860e+01 3.796802e-02
1.136960e+01 4.114460e-02
1.155350e+01 4.409709e-02
1.174040e+01 4.633663e-02
1.193030e+01 4.671367e-02
1.212320e+01 4.709332e-02
1.231930e+01 4.599293e-02
1.251860e+01 4.458811e-02
1.272100e+01 4.064467e-02
1.292680e+01 3.643718e-02
1.313590e+01 3.275618e-02
1.334830e+01 2.920641e-02
1.356420e+01 2.596807e-02
1.378360e+01 2.416158e-02
1.400660e+01 2.261830e-02
1.423310e+01 2.117335e-02
1.446330e+01 2.046204e-02
1.469730e+01 2.009550e-02
1.493500e+01 1.973542e-02
1.517650e+01 1.955713e-02
1.542200e+01 1.942098e-02
1.567140e+01 1.973729e-02
1.592490e+01 2.009534e-02
1.618250e+01 2.044602e-02
1.644420e+01 2.065480e-02
1.671020e+01 2.086582e-02
1.698050e+01 2.107902e-02
1.725510e+01 2.129426e-02
1.753420e+01 2.136301e-02
1.781780e+01 2.137716e-02
1.810600e+01 2.139125e-02
1.839890e+01 2.140541e-02
1.869640e+01 2.141944e-02
1.899880e+01 2.143357e-02
1.930610e+01 2.144771e-02
1.961840e+01 2.146192e-02
1.993570e+01 2.128584e-02
2.025820e+01 2.099403e-02
2.058580e+01 2.070607e-02
2.091880e+01 2.042218e-02
2.125710e+01 2.014205e-02
2.160090e+01 1.986586e-02
2.195030e+01 1.958996e-02
2.230530e+01 1.920485e-02
2.266610e+01 1.882733e-02
2.303270e+01 1.845720e-02
2.340530e+01 1.809442e-02
2.378380e+01 1.773868e-02
2.416850e+01 1.738997e-02
2.455940e+01 1.704810e-02
2.495660e+01 1.671294e-02
2.536030e+01 1.638442e-02
2.577050e+01 1.606235e-02
2.618730e+01 1.572372e-02
2.661090e+01 1.537834e-02
2.704130e+01 1.504050e-02
2.747860e+01 1.471005e-02
2.792310e+01 1.438691e-02
2.837470e+01 1.407084e-02
2.883370e+01 1.376176e-02
2.930000e+01 1.348749e-02
2.977390e+01 1.323407e-02
3.025550e+01 1.298544e-02
3.074490e+01 1.274147e-02
3.124210e+01 1.250208e-02
3.174750e+01 1.226717e-02
3.226090e+01 1.203673e-02
3.278270e+01 1.183798e-02
3.331300e+01 1.167403e-02
3.385180e+01 1.151234e-02
3.439930e+01 1.135283e-02
3.495570e+01 1.119561e-02
3.552110e+01 1.104049e-02
3.609560e+01 1.088757e-02
3.667940e+01 1.077294e-02
3.727270e+01 1.069640e-02
3.787550e+01 1.062043e-02
3.848820e+01 1.054494e-02
3.911070e+01 1.047005e-02
3.974320e+01 1.039561e-02
4.038610e+01 1.032376e-02
4.103930e+01 1.028654e-02
4.170310e+01 1.024934e-02
4.237760e+01 1.021236e-02
4.306300e+01 1.017549e-02
4.375950e+01 1.013871e-02
4.446730e+01 1.010215e-02
4.518650e+01 1.006564e-02
4.591740e+01 1.006086e-02
4.666000e+01 1.007015e-02
4.741470e+01 1.007943e-02
4.818160e+01 1.008873e-02
4.896090e+01 1.009802e-02
4.975280e+01 1.010734e-02
5.055760e+01 1.015248e-02
5.137530e+01 1.021802e-02
5.220620e+01 1.028392e-02
5.305060e+01 1.035027e-02
5.390870e+01 1.041707e-02
5.478060e+01 1.048428e-02
5.566670e+01 1.058133e-02
5.656700e+01 1.068744e-02
5.748200e+01 1.079468e-02
5.841170e+01 1.090293e-02
5.935640e+01 1.101226e-02
6.031650e+01 1.112272e-02
6.129210e+01 1.123429e-02
6.228340e+01 1.134693e-02
6.329080e+01 1.146072e-02
6.431450e+01 1.178527e-02
6.535470e+01 1.214248e-02
6.641180e+01 1.251060e-02
6.748590e+01 1.288984e-02
6.857750e+01 1.328060e-02
6.968670e+01 1.368321e-02
7.081380e+01 1.409795e-02
7.195910e+01 1.452535e-02
7.312300e+01 1.496562e-02
7.430570e+01 1.541934e-02
7.550760e+01 1.588672e-02
7.672890e+01 1.645692e-02
7.796990e+01 1.712189e-02
7.923100e+01 1.781370e-02
8.051250e+01 1.853349e-02
8.181470e+01 1.928234e-02
8.313800e+01 2.005965e-02
8.448270e+01 2.084211e-02
8.584910e+01 2.165521e-02
8.723770e+01 2.249997e-02
8.864870e+01 2.337758e-02
9.008250e+01 2.428953e-02
9.153950e+01 2.528010e-02
9.302010e+01 2.638335e-02
9.452460e+01 2.753469e-02
9.605350e+01 2.873632e-02
9.760710e+01 2.999048e-02
9.918580e+01 3.129934e-02
1.007900e+02 3.266542e-02
1.024200e+02 3.437948e-02
1.040770e+02 3.620627e-02
1.057600e+02 3.812996e-02
1.074710e+02 4.015582e-02
1.092090e+02 4.228945e-02
1.109750e+02 4.453601e-02
1.127700e+02 4.690231e-02
1.145940e+02 4.984749e-02
1.164480e+02 5.312811e-02
1.183310e+02 5.662425e-02
1.202450e+02 6.035084e-02
1.221900e+02 6.432254e-02
1.241660e+02 6.799635e-02
1.261750e+02 7.112444e-02
1.282150e+02 7.439560e-02
1.302890e+02 7.781783e-02
1.323970e+02 8.139755e-02
1.345380e+02 8.514149e-02
1.367140e+02 8.925235e-02
1.389250e+02 9.369683e-02
1.411720e+02 9.836248e-02
1.434560e+02 1.032612e-01
1.457760e+02 1.084030e-01
1.481340e+02 1.137356e-01
1.505300e+02 1.193191e-01
1.529640e+02 1.251765e-01
1.554390e+02 1.313225e-01
1.579530e+02 1.357522e-01
1.605070e+02 1.399807e-01
1.631030e+02 1.443421e-01
1.657420e+02 1.488397e-01
1.684220e+02 1.492707e-01
1.711460e+02 1.492566e-01
1.739150e+02 1.492435e-01
1.767270e+02 1.473891e-01
1.795860e+02 1.447258e-01
1.824910e+02 1.421103e-01
1.854420e+02 1.381755e-01
1.884420e+02 1.329629e-01
1.914890e+02 1.279462e-01
1.945870e+02 1.236933e-01
1.977340e+02 1.198949e-01
2.009320e+02 1.162129e-01
2.041820e+02 1.126445e-01
2.074850e+02 1.091685e-01
2.108400e+02 1.057828e-01
2.142510e+02 1.025031e-01
2.177160e+02 9.932443e-02
2.212370e+02 9.624453e-02
2.248160e+02 9.334759e-02
2.284520e+02 9.066845e-02
2.321470e+02 8.806563e-02
2.359020e+02 8.553799e-02
2.397170e+02 8.308239e-02
2.435950e+02 8.069794e-02
2.475350e+02 7.838136e-02
2.515380e+02 7.651423e-02
2.556070e+02 7.469847e-02
2.597410e+02 7.292565e-02
2.639420e+02 7.119463e-02
2.682110e+02 6.950515e-02
2.725490e+02 6.805619e-02
2.769570e+02 6.703409e-02
2.814370e+02 6.602773e-02
2.859890e+02 6.503630e-02
2.906150e+02 6.405989e-02
2.953150e+02 6.309821e-02
3.000920e+02 6.215065e-02
3.049450e+02 6.149609e-02
3.098780e+02 6.088144e-02
3.148900e+02 6.027250e-02
3.199830e+02 5.966988e-02
3.251580e+02 5.907312e-02
3.304180e+02 5.850141e-02
3.357620e+02 5.837414e-02
3.411920e+02 5.824690e-02
3.467110e+02 5.812031e-02
3.523190e+02 5.799376e-02
3.580170e+02 5.786753e-02
3.638080e+02 5.774154e-02
3.696920e+02 5.775313e-02
3.756720e+02 5.784708e-02
3.817480e+02 5.794136e-02
3.879220e+02 5.803535e-02
3.941970e+02 5.812987e-02
4.005730e+02 5.822443e-02
4.070520e+02 5.831925e-02
4.136350e+02 5.853280e-02
4.203260e+02 5.908511e-02
4.271240e+02 5.964244e-02
4.340320e+02 6.020504e-02
4.410520e+02 6.077300e-02
4.481860e+02 6.134622e-02
4.554350e+02 6.194971e-02
4.628020e+02 6.270229e-02
4.702870e+02 6.348597e-02
4.778940e+02 6.427978e-02
4.856230e+02 6.508145e-02
4.934780e+02 6.589285e-02
5.014590e+02 6.671532e-02
5.095700e+02 6.755061e-02
5.178120e+02 6.842345e-02
5.261870e+02 6.940414e-02
5.346980e+02 7.059967e-02
5.433460e+02 7.191690e-02
5.521340e+02 7.325442e-02
5.610650e+02 7.464327e-02
5.701390e+02 7.608359e-02
5.793610e+02 7.764033e-02
5.887320e+02 7.925009e-02
5.982540e+02 8.090759e-02
6.079300e+02 8.260237e-02
6.177630e+02 8.433234e-02
6.277550e+02 8.605061e-02
6.379080e+02 8.720000e-02
6.482260e+02 8.756639e-02
6.587110e+02 8.740670e-02
6.693650e+02 8.724796e-02
6.801910e+02 8.769801e-02
6.911930e+02 8.867939e-02
7.023720e+02 9.021192e-02
7.137330e+02 9.222600e-02
7.252770e+02 9.460889e-02
7.370080e+02 9.705374e-02
7.489280e+02 9.956261e-02
7.610420e+02 1.021237e-01
7.733510e+02 1.046090e-01
7.858590e+02 1.066826e-01
7.985700e+02 1.083992e-01
8.114860e+02 1.101444e-01
8.246110e+02 1.119196e-01
8.379490e+02 1.137242e-01
8.515020e+02 1.159656e-01
8.652740e+02 1.187746e-01
8.792690e+02 1.221342e-01
8.934910e+02 1.255913e-01
9.079430e+02 1.291476e-01
9.226280e+02 1.328058e-01
9.375510e+02 1.364586e-01
9.527150e+02 1.401825e-01
9.681240e+02 1.439808e-01
9.837830e+02 1.478851e-01
9.996950e+02 1.519691e-01
1.015860e+03 1.562472e-01
1.032290e+03 1.614516e-01
1.048990e+03 1.668412e-01
1.065960e+03 1.724165e-01
1.083200e+03 1.781844e-01
1.100720e+03 1.841460e-01
1.118520e+03 1.903087e-01
1.136610e+03 1.966843e-01
1.155000e+03 2.032762e-01
1.173680e+03 2.100912e-01
1.192660e+03 2.171396e-01
1.211950e+03 2.244299e-01
1.231550e+03 2.319675e-01
1.251470e+03 2.397643e-01
1.271720e+03 2.478270e-01
1.292290e+03 2.561654e-01
1.313190e+03 2.647891e-01
1.334430e+03 2.737080e-01
1.356010e+03 2.829313e-01
1.377940e+03 2.924769e-01
1.400230e+03 3.023452e-01
1.422880e+03 3.125494e-01
1.445890e+03 3.231138e-01
1.469280e+03 3.340617e-01
1.493040e+03 3.454172e-01
1.517190e+03 3.573500e-01
1.541730e+03 3.697206e-01
1.566670e+03 3.825254e-01
1.592010e+03 3.957833e-01
1.617760e+03 4.095073e-01
1.643920e+03 4.237100e-01
1.670510e+03 4.384096e-01
1.697530e+03 4.536277e-01
1.724990e+03 4.693940e-01
1.752890e+03 4.861128e-01
1.781240e+03 5.035799e-01
1.810050e+03 5.218099e-01
1.839320e+03 5.407065e-01
1.869070e+03 5.602860e-01
1.899300e+03 5.805661e-01
1.930020e+03 6.015946e-01
1.961240e+03 6.233962e-01
1.992960e+03 6.459929e-01
2.025200e+03 6.690031e-01
2.057950e+03 6.937384e-01
2.091240e+03 7.195483e-01
2.125060e+03 7.464368e-01
2.159430e+03 7.744242e-01
2.194360e+03 8.036153e-01
2.229850e+03 8.340277e-01
2.265920e+03 8.657531e-01
2.302570e+03 8.988090e-01
2.339810e+03 9.333004e-01
2.377660e+03 9.692630e-01
2.389200e+03 9.803912e-01
2.389400e+03 3.615563e-01
2.416110e+03 3.717436e-01
2.455190e+03 3.869542e-01
2.485000e+03 3.988032e-01
2.485200e+03 2.725883e-01
2.494900e+03 2.752084e-01
2.535260e+03 2.862692e-01
2.576260e+03 2.977698e-01
2.617930e+03 3.097254e-01
2.660270e+03 3.221504e-01
2.703300e+03 3.350650e-01
2.747030e+03 3.484924e-01
2.791460e+03 3.624323e-01
2.836610e+03 3.769282e-01
2.882490e+03 3.919904e-01
2.929110e+03 4.076520e-01
2.956500e+03 4.170217e-01
2.956700e+03 3.599732e-01
2.976480e+03 3.658184e-01
3.024630e+03 3.802770e-01
3.073550e+03 3.953098e-01
3.123260e+03 4.109349e-01
3.173780e+03 4.271459e-01
3.225110e+03 4.440046e-01
3.277270e+03 4.614905e-01
3.330280e+03 4.796786e-01
3.384150e+03 4.985489e-01
3.415600e+03 5.097652e-01
3.415800e+03 4.820892e-01
3.438880e+03 4.900648e-01
3.494500e+03 5.096036e-01
3.551020e+03 5.298816e-01
3.608460e+03 5.509613e-01
3.666820e+03 5.728837e-01
3.704000e+03 5.871139e-01
3.704200e+03 5.664171e-01
3.726130e+03 5.742372e-01
3.786400e+03 5.960421e-01
3.847640e+03 6.188180e-01
3.909870e+03 6.425449e-01
3.973110e+03 6.672891e-01
4.037380e+03 6.931395e-01
4.102680e+03 7.201319e-01
4.169030e+03 7.482519e-01
4.236460e+03 7.775727e-01
4.304980e+03 8.082015e-01
4.374620e+03 8.401706e-01
4.445370e+03 8.734782e-01
4.517270e+03 9.082444e-01
4.590330e+03 9.445109e-01
4.664580e+03 9.823605e-01
4.740030e+03 1.021840e+00
4.816690e+03 1.063023e+00
4.894600e+03 1.105986e+00
4.973770e+03 1.150826e+00
5.054210e+03 1.197582e+00
5.135960e+03 1.246365e+00
5.219030e+03 1.297246e+00
5.303440e+03 1.350319e+00
5.389220e+03 1.405700e+00
5.476390e+03 1.463474e+00
5.564970e+03 1.523704e+00
5.654980e+03 1.586546e+00
5.746440e+03 1.652103e+00
5.839390e+03 1.720485e+00
5.933830e+03 1.791794e+00
6.029810e+03 1.866174e+00
6.127330e+03 1.943733e+00
6.226440e+03 2.024659e+00
6.327150e+03 2.109008e+00
6.429480e+03 2.196986e+00
6.533480e+03 2.288794e+00
6.639150e+03 2.384487e+00
6.746540e+03 2.484270e+00
6.855650e+03 2.588301e+00
6.966540e+03 2.696790e+00
7.079220e+03 2.809968e+00
7.193720e+03 2.927949e+00
7.310070e+03 3.050888e+00
7.428310e+03 3.179152e+00
7.548450e+03 3.312800e+00
7.670540e+03 3.452089e+00
7.794610e+03 3.597304e+00
7.920680e+03 3.748690e+00
8.048790e+03 3.906596e+00
8.178980e+03 4.071053e+00
8.311260e+03 4.242455e+00
8.445690e+03 4.421139e+00
8.582290e+03 4.607339e+00
8.721110e+03 4.801400e+00
8.862160e+03 5.003408e+00
9.005500e+03 5.214140e+00
9.151160e+03 5.433378e+00
9.299170e+03 5.661994e+00
9.449580e+03 5.900300e+00
9.602420e+03 6.148368e+00
9.757730e+03 6.406798e+00
9.915550e+03 6.675840e+00
1.007590e+04 6.964154e+00
1.023890e+04 7.264752e+00
1.040450e+04 7.578025e+00
1.057280e+04 7.904544e+00
1.074380e+04 8.244769e+00
1.091760e+04 8.599264e+00
1.109420e+04 8.968552e+00
1.127360e+04 9.353157e+00
1.145590e+04 9.753679e+00
1.164120e+04 1.017078e+01
1.182950e+04 1.060503e+01
1.202080e+04 1.105697e+01
1.221530e+04 1.152745e+01
1.241280e+04 1.201685e+01
1.261360e+04 1.252613e+01
1.265740e+04 1.263889e+01
1.265760e+04 5.079495e+00
1.281760e+04 5.259263e+00
1.302500e+04 5.498198e+00
1.323560e+04 5.747915e+00
1.344970e+04 6.009009e+00
1.366720e+04 6.281939e+00
1.388830e+04 6.567298e+00
1.411290e+04 6.865582e+00
1.434120e+04 7.177443e+00
1.457310e+04 7.503426e+00
1.469780e+04 7.682476e+00
1.469800e+04 5.489708e+00
1.480890e+04 5.590530e+00
1.504840e+04 5.811988e+00
1.529180e+04 6.042300e+00
1.534660e+04 6.094859e+00
1.534680e+04 5.336620e+00
1.553910e+04 5.504121e+00
1.579040e+04 5.727671e+00
1.604580e+04 5.961224e+00
1.630540e+04 6.205199e+00
1.656910e+04 6.460002e+00
1.683710e+04 6.726237e+00
1.710940e+04 7.004325e+00
1.738610e+04 7.294763e+00
1.766740e+04 7.598259e+00
1.795310e+04 7.915235e+00
1.824350e+04 8.246417e+00
1.853860e+04 8.592381e+00
1.883840e+04 8.953781e+00
1.914310e+04 9.331358e+00
1.945270e+04 9.725799e+00
1.976740e+04 1.013795e+01
2.008710e+04 1.056849e+01
2.041200e+04 1.101831e+01
2.074210e+04 1.148825e+01
2.107760e+04 1.197927e+01
2.141850e+04 1.249228e+01
2.176500e+04 1.302833e+01
2.211700e+04 1.358834e+01
2.247470e+04 1.417346e+01
2.283820e+04 1.478485e+01
2.320760e+04 1.542368e+01
2.358300e+04 1.609121e+01
2.396440e+04 1.678862e+01
2.435200e+04 1.751739e+01
2.474590e+04 1.827892e+01
2.514620e+04 1.907465e+01
2.555290e+04 1.990610e+01
2.596620e+04 2.077490e+01
2.638610e+04 2.168274e+01
2.681290e+04 2.263140e+01
2.724660e+04 2.362276e+01
2.768730e+04 2.465868e+01
2.813510e+04 2.574116e+01
2.859020e+04 2.687243e+01
2.905260e+04 2.805449e+01
2.952250e+04 2.928974e+01
3.000000e+04 3.058060e+01
