# material=Tm density=9.321
# Photon Energy [eV]  Attenuation Length [um]
1.000000e+01 2.403762e-01
1.016170e+01 2.384293e-01
1.032610e+01 2.365005e-01
1.049310e+01 2.345847e-01
1.066280e+01 2.326850e-01
1.083530e+01 2.308023e-01
1.101060e+01 2.289352e-01
1.118860e+01 2.270794e-01
1.136960e+01 2.252422e-01
1.155350e+01 2.234183e-01
1.174040e+01 2.217498e-01
1.193030e+01 2.201898e-01
1.212320e+01 2.186402e-01
1.231930e+01 2.171023e-01
1.251860e+01 2.135653e-01
1.272100e+01 2.099713e-01
1.292680e+01 2.064402e-01
1.313590e+01 2.028151e-01
1.334830e+01 1.991040e-01
1.356420e+01 1.954617e-01
1.378360e+01 1.918868e-01
1.400660e+01 1.883776e-01
1.423310e+01 1.853232e-01
1.446330e+01 1.823434e-01
1.469730e+01 1.794121e-01
1.493500e+01 1.770255e-01
1.517650e+01 1.757511e-01
1.542200e+01 1.744872e-01
1.567140e+01 1.732311e-01
1.592490e+01 1.708789e-01
1.618250e+01 1.681525e-01
1.644420e+01 1.654690e-01
1.671020e+01 1.628289e-01
1.698050e+01 1.607700e-01
1.725510e+01 1.589613e-01
1.753420e+01 1.571736e-01
1.781780e+01 1.556161e-01
1.810600e+01 1.546317e-01
1.839890e+01 1.536534e-01
1.869640e+01 1.524653e-01
1.899880e+01 1.505418e-01
1.930610e+01 1.486424e-01
1.961840e+01 1.466399e-01
1.993570e+01 1.439741e-01
2.025820e+01 1.413570e-01
2.058580e+01 1.397798e-01
2.091880e+01 1.386694e-01
2.125710e+01 1.375675e-01
2.160090e+01 1.364991e-01
2.195030e+01 1.354712e-01
2.230530e+01 1.344505e-01
2.266610e+01 1.333677e-01
2.303270e+01 1.282740e-01
2.340530e+01 1.233752e-01
2.378380e+01 1.166856e-01
2.416850e+01 1.069665e-01
2.455940e+01 9.797491e-02
2.495660e+01 8.853483e-02
2.536030e+01 7.987416e-02
2.577050e+01 6.467947e-02
2.618730e+01 4.466679e-02
2.661090e+01 3.958823e-02
2.704130e+01 3.205011e-02
2.747860e+01 2.784322e-02
2.792310e+01 2.500595e-02
2.837470e+01 2.230988e-02
2.883370e+01 2.003809e-02
2.930000e+01 1.836639e-02
2.977390e+01 1.690504e-02
3.025550e+01 1.560810e-02
3.074490e+01 1.508278e-02
3.124210e+01 1.467710e-02
3.174750e+01 1.440687e-02
3.226090e+01 1.414608e-02
3.278270e+01 1.401319e-02
3.331300e+01 1.401358e-02
3.385180e+01 1.401399e-02
3.439930e+01 1.403891e-02
3.495570e+01 1.406934e-02
3.552110e+01 1.409979e-02
3.609560e+01 1.424800e-02
3.667940e+01 1.443610e-02
3.727270e+01 1.461991e-02
3.787550e+01 1.478700e-02
3.848820e+01 1.495625e-02
3.911070e+01 1.523182e-02
3.974320e+01 1.566298e-02
4.038610e+01 1.610841e-02
4.103930e+01 1.657058e-02
4.170310e+01 1.704684e-02
4.237760e+01 1.758322e-02
4.306300e+01 1.813649e-02
4.375950e+01 1.853623e-02
4.446730e+01 1.892913e-02
4.518650e+01 1.933043e-02
4.591740e+01 1.974016e-02
4.666000e+01 2.008808e-02
4.741470e+01 2.043321e-02
4.818160e+01 2.078423e-02
4.896090e+01 2.122679e-02
4.975280e+01 2.178674e-02
5.055760e+01 2.236154e-02
5.137530e+01 2.293071e-02
5.220620e+01 2.343016e-02
5.305060e+01 2.394052e-02
5.390870e+01 2.446204e-02
5.478060e+01 2.500323e-02
5.566670e+01 2.556283e-02
5.656700e+01 2.613490e-02
5.748200e+01 2.671984e-02
5.841170e+01 2.730116e-02
5.935640e+01 2.788955e-02
6.031650e+01 2.849070e-02
6.129210e+01 2.903460e-02
6.228340e+01 2.955790e-02
6.329080e+01 3.009062e-02
6.431450e+01 3.062187e-02
6.535470e+01 3.099369e-02
6.641180e+01 3.137004e-02
6.748590e+01 3.175089e-02
6.857750e+01 3.213501e-02
6.968670e+01 3.251895e-02
7.081380e+01 3.290742e-02
7.195910e+01 3.330057e-02
7.312300e+01 3.369841e-02
7.430570e+01 3.402718e-02
7.550760e+01 3.434511e-02
7.672890e+01 3.466599e-02
7.796990e+01 3.498986e-02
7.923100e+01 3.534181e-02
8.051250e+01 3.571154e-02
8.181470e+01 3.608511e-02
8.313800e+01 3.646258e-02
8.448270e+01 3.681295e-02
8.584910e+01 3.707419e-02
8.723770e+01 3.733741e-02
8.864870e+01 3.760240e-02
9.008250e+01 3.786933e-02
9.153950e+01 3.802532e-02
9.302010e+01 3.812702e-02
9.452460e+01 3.827274e-02
9.605350e+01 3.860255e-02
9.760710e+01 3.893519e-02
9.918580e+01 3.927069e-02
1.007900e+02 3.960873e-02
1.024200e+02 3.995002e-02
1.040770e+02 4.029420e-02
1.057600e+02 4.064147e-02
1.074710e+02 4.099175e-02
1.092090e+02 4.134454e-02
1.109750e+02 4.154749e-02
1.127700e+02 4.133245e-02
1.145940e+02 4.111850e-02
1.164480e+02 4.143442e-02
1.183310e+02 4.190398e-02
1.202450e+02 4.235715e-02
1.221900e+02 4.279275e-02
1.241660e+02 4.323272e-02
1.261750e+02 4.367764e-02
1.282150e+02 4.403029e-02
1.302890e+02 4.433214e-02
1.323970e+02 4.463648e-02
1.345380e+02 4.532069e-02
1.367140e+02 4.610563e-02
1.389250e+02 4.690452e-02
1.411720e+02 4.709792e-02
1.434560e+02 4.725811e-02
1.457760e+02 4.807754e-02
1.481340e+02 4.891177e-02
1.505300e+02 5.043442e-02
1.529640e+02 5.205741e-02
1.554390e+02 5.373316e-02
1.579530e+02 5.749951e-02
1.605070e+02 6.231964e-02
1.631030e+02 6.707660e-02
1.657420e+02 7.461584e-02
1.684220e+02 8.212781e-02
1.711460e+02 5.893440e-02
1.739150e+02 2.343217e-02
1.767270e+02 2.618946e-02
1.795860e+02 3.024273e-02
1.824910e+02 3.473210e-02
1.854420e+02 3.881447e-02
1.884420e+02 4.201920e-02
1.914890e+02 4.382980e-02
1.945870e+02 4.512184e-02
1.977340e+02 4.645231e-02
2.009320e+02 4.782258e-02
2.041820e+02 4.867059e-02
2.074850e+02 4.939914e-02
2.108400e+02 4.998571e-02
2.142510e+02 5.057862e-02
2.177160e+02 5.117474e-02
2.212370e+02 5.177349e-02
2.248160e+02 5.237796e-02
2.284520e+02 5.298946e-02
2.321470e+02 5.360892e-02
2.359020e+02 5.426192e-02
2.397170e+02 5.495513e-02
2.435950e+02 5.569830e-02
2.475350e+02 5.645114e-02
2.515380e+02 5.721377e-02
2.556070e+02 5.798648e-02
2.597410e+02 5.879703e-02
2.639420e+02 5.969780e-02
2.682110e+02 6.070256e-02
2.725490e+02 6.172263e-02
2.769570e+02 6.276015e-02
2.814370e+02 6.381530e-02
2.859890e+02 6.491992e-02
2.906150e+02 6.605462e-02
2.953150e+02 6.722081e-02
3.000920e+02 6.841085e-02
3.049450e+02 6.962108e-02
3.098780e+02 7.085060e-02
3.148900e+02 7.210219e-02
3.199830e+02 7.337642e-02
3.251580e+02 7.467324e-02
3.304180e+02 7.599548e-02
3.357620e+02 7.716937e-02
3.411920e+02 7.800528e-02
3.467110e+02 7.884602e-02
3.523190e+02 7.969550e-02
3.580170e+02 8.055540e-02
3.638080e+02 8.142706e-02
3.696920e+02 8.231029e-02
3.756720e+02 8.320899e-02
3.817480e+02 8.412562e-02
3.879220e+02 8.507050e-02
3.941970e+02 8.606404e-02
4.005730e+02 8.706814e-02
4.070520e+02 8.808345e-02
4.136350e+02 8.910595e-02
4.203260e+02 9.016715e-02
4.271240e+02 9.128219e-02
4.340320e+02 9.259037e-02
4.410520e+02 9.391673e-02
4.481860e+02 9.526110e-02
4.554350e+02 9.662210e-02
4.628020e+02 9.810868e-02
4.702870e+02 9.968756e-02
4.778940e+02 1.013514e-01
4.856230e+02 1.030423e-01
4.934780e+02 1.047725e-01
5.014590e+02 1.065763e-01
5.095700e+02 1.085025e-01
5.178120e+02 1.105493e-01
5.261870e+02 1.127885e-01
5.346980e+02 1.153673e-01
5.433460e+02 1.181554e-01
5.521340e+02 1.210098e-01
5.610650e+02 1.240128e-01
5.701390e+02 1.271321e-01
5.793610e+02 1.303608e-01
5.887320e+02 1.336761e-01
5.982540e+02 1.370797e-01
6.079300e+02 1.405696e-01
6.177630e+02 1.441480e-01
6.277550e+02 1.478282e-01
6.379080e+02 1.517248e-01
6.482260e+02 1.559129e-01
6.587110e+02 1.603439e-01
6.693650e+02 1.649019e-01
6.801910e+02 1.693102e-01
6.911930e+02 1.736170e-01
7.023720e+02 1.780030e-01
7.137330e+02 1.828511e-01
7.252770e+02 1.880830e-01
7.370080e+02 1.934689e-01
7.489280e+02 1.990093e-01
7.610420e+02 2.047126e-01
7.733510e+02 2.106215e-01
7.858590e+02 2.168473e-01
7.985700e+02 2.233801e-01
8.114860e+02 2.301105e-01
8.246110e+02 2.370474e-01
8.379490e+02 2.441934e-01
8.515020e+02 2.515815e-01
8.652740e+02 2.592158e-01
8.792690e+02 2.671036e-01
8.934910e+02 2.752367e-01
9.079430e+02 2.836218e-01
9.226280e+02 2.922620e-01
9.375510e+02 3.012656e-01
9.527150e+02 3.105708e-01
9.681240e+02 3.201863e-01
9.837830e+02 3.301155e-01
9.996950e+02 3.404145e-01
1.015860e+03 3.510958e-01
1.032290e+03 3.626970e-01
1.048990e+03 3.747522e-01
1.065960e+03 3.872812e-01
1.083200e+03 4.002329e-01
1.100720e+03 4.136295e-01
1.118520e+03 4.274832e-01
1.136610e+03 4.418225e-01
1.155000e+03 4.566491e-01
1.173680e+03 4.719674e-01
1.192660e+03 4.878300e-01
1.211950e+03 5.042293e-01
1.231550e+03 5.211894e-01
1.251470e+03 5.387456e-01
1.271720e+03 5.569035e-01
1.292290e+03 5.756828e-01
1.313190e+03 5.951099e-01
1.334430e+03 6.152018e-01
1.356010e+03 6.359821e-01
1.377940e+03 6.575028e-01
1.400230e+03 6.797612e-01
1.422880e+03 7.027744e-01
1.445890e+03 7.265773e-01
1.467600e+03 7.494096e-01
1.467800e+03 1.476177e-01
1.469280e+03 1.479905e-01
1.493040e+03 1.540633e-01
1.517190e+03 1.603859e-01
1.541730e+03 1.669676e-01
1.566670e+03 1.738198e-01
1.592010e+03 1.809551e-01
1.617760e+03 1.883858e-01
1.643920e+03 1.961233e-01
1.670510e+03 2.041826e-01
1.697530e+03 2.125737e-01
1.724990e+03 2.213106e-01
1.752890e+03 2.304083e-01
1.781240e+03 2.398786e-01
1.810050e+03 2.497375e-01
1.839320e+03 2.600002e-01
1.869070e+03 2.706874e-01
1.884400e+03 2.762948e-01
1.884600e+03 2.353380e-01
1.899300e+03 2.400431e-01
1.930020e+03 2.500592e-01
1.961240e+03 2.604922e-01
1.992960e+03 2.713579e-01
2.025200e+03 2.826073e-01
2.057950e+03 2.943852e-01
2.089700e+03 3.060817e-01
2.089900e+03 2.855573e-01
2.091240e+03 2.860163e-01
2.125060e+03 2.977598e-01
2.159430e+03 3.099807e-01
2.194360e+03 3.226987e-01
2.229850e+03 3.359213e-01
2.265920e+03 3.496857e-01
2.302570e+03 3.498462e-01
2.306700e+03 3.498640e-01
2.306900e+03 3.495989e-01
2.339810e+03 3.615849e-01
2.377660e+03 3.756588e-01
2.416110e+03 3.903028e-01
2.455190e+03 4.055430e-01
2.494900e+03 4.214211e-01
2.535260e+03 4.379337e-01
2.576260e+03 4.551152e-01
2.617930e+03 4.730074e-01
2.660270e+03 4.916145e-01
2.703300e+03 5.110094e-01
2.747030e+03 5.311675e-01
2.791460e+03 5.521452e-01
2.836610e+03 5.739762e-01
2.882490e+03 5.966990e-01
2.929110e+03 6.203513e-01
2.976480e+03 6.449759e-01
3.024630e+03 6.705987e-01
3.073550e+03 6.972409e-01
3.123260e+03 7.249793e-01
3.173780e+03 7.538886e-01
3.225110e+03 7.839551e-01
3.277270e+03 8.152360e-01
3.330280e+03 8.478231e-01
3.384150e+03 8.817329e-01
3.438880e+03 9.170684e-01
3.494500e+03 9.537990e-01
3.551020e+03 9.920596e-01
3.608460e+03 1.031950e+00
3.666820e+03 1.073400e+00
3.726130e+03 1.116626e+00
3.786400e+03 1.161626e+00
3.847640e+03 1.208476e+00
3.909870e+03 1.257269e+00
3.973110e+03 1.308085e+00
4.037380e+03 1.361007e+00
4.102680e+03 1.416127e+00
4.169030e+03 1.473548e+00
4.236460e+03 1.533331e+00
4.304980e+03 1.595635e+00
4.374620e+03 1.660501e+00
4.445370e+03 1.728111e+00
4.517270e+03 1.798545e+00
4.590330e+03 1.871880e+00
4.664580e+03 1.948292e+00
4.740030e+03 2.027929e+00
4.816690e+03 2.110895e+00
4.894600e+03 2.197337e+00
4.973770e+03 2.287428e+00
5.054210e+03 2.381303e+00
5.135960e+03 2.479142e+00
5.219030e+03 2.581131e+00
5.303440e+03 2.687358e+00
5.389220e+03 2.798156e+00
5.476390e+03 2.913600e+00
5.564970e+03 3.033954e+00
5.654980e+03 3.159437e+00
5.746440e+03 3.290206e+00
5.839390e+03 3.426605e+00
5.933830e+03 3.568796e+00
6.029810e+03 3.717102e+00
6.127330e+03 3.871798e+00
6.226440e+03 4.033073e+00
6.327150e+03 4.201360e+00
6.429480e+03 4.376829e+00
6.533480e+03 4.560076e+00
6.639150e+03 4.751080e+00
6.746540e+03 4.950453e+00
6.855650e+03 5.158511e+00
6.966540e+03 5.375665e+00
7.079220e+03 5.602267e+00
7.193720e+03 5.838782e+00
7.310070e+03 6.085831e+00
7.428310e+03 6.343751e+00
7.548450e+03 6.613128e+00
7.670540e+03 6.894466e+00
7.794610e+03 7.188415e+00
7.920680e+03 7.495510e+00
8.048790e+03 7.816425e+00
8.178980e+03 8.151729e+00
8.311260e+03 8.501910e+00
8.445690e+03 8.867901e+00
8.582290e+03 9.251183e+00
8.647900e+03 9.438840e+00
8.648100e+03 3.399019e+00
8.721110e+03 3.481889e+00
8.862160e+03 3.645669e+00
9.005500e+03 3.817185e+00
9.151160e+03 3.996832e+00
9.299170e+03 4.184883e+00
9.449580e+03 4.381722e+00
9.602420e+03 4.587862e+00
9.616800e+03 4.607571e+00
9.617000e+03 3.293853e+00
9.757730e+03 3.435628e+00
9.915550e+03 3.599298e+00
1.007590e+04 3.769950e+00
1.011560e+04 3.812959e+00
1.011580e+04 3.390020e+00
1.023890e+04 3.490258e+00
1.040450e+04 3.627822e+00
1.057280e+04 3.771569e+00
1.074380e+04 3.921764e+00
1.091760e+04 4.078782e+00
1.109420e+04 4.242801e+00
1.127360e+04 4.414219e+00
1.145590e+04 4.593336e+00
1.164120e+04 4.780540e+00
1.182950e+04 4.976198e+00
1.202080e+04 5.180616e+00
1.221530e+04 5.394303e+00
1.241280e+04 5.617552e+00
1.261360e+04 5.850910e+00
1.281760e+04 6.094761e+00
1.302500e+04 6.349670e+00
1.323560e+04 6.616006e+00
1.344970e+04 6.894403e+00
1.366720e+04 7.185354e+00
1.388830e+04 7.489482e+00
1.411290e+04 7.807319e+00
1.434120e+04 8.139562e+00
1.457310e+04 8.486790e+00
1.480890e+04 8.849813e+00
1.504840e+04 9.229202e+00
1.529180e+04 9.625790e+00
1.553910e+04 1.004032e+01
1.579040e+04 1.047366e+01
1.604580e+04 1.092665e+01
1.630540e+04 1.140026e+01
1.656910e+04 1.189529e+01
1.683710e+04 1.241283e+01
1.710940e+04 1.295382e+01
1.738610e+04 1.351941e+01
1.766740e+04 1.411079e+01
1.795310e+04 1.472895e+01
1.824350e+04 1.537529e+01
1.853860e+04 1.605102e+01
1.883840e+04 1.675748e+01
1.914310e+04 1.749611e+01
1.945270e+04 1.826834e+01
1.976740e+04 1.907586e+01
2.008710e+04 1.992005e+01
2.041200e+04 2.080275e+01
2.074210e+04 2.172564e+01
2.107760e+04 2.269072e+01
2.141850e+04 2.369966e+01
2.176500e+04 2.475484e+01
2.211700e+04 2.585790e+01
2.247470e+04 2.701138e+01
2.283820e+04 2.821747e+01
2.320760e+04 2.947868e+01
2.358300e+04 3.079748e+01
2.396440e+04 3.217634e+01
2.435200e+04 3.361818e+01
2.474590e+04 3.512594e+01
2.514620e+04 3.670260e+01
2.555290e+04 3.835100e+01
2.596620e+04 4.007480e+01
2.638610e+04 4.187726e+01
2.681290e+04 4.376214e+01
2.724660e+04 4.573304e+01
2.768730e+04 4.779406e+01
2.813510e+04 4.994897e+01
2.859020e+04 5.220248e+01
2.905260e+04 5.455896e+01
2.952250e+04 5.702295e+01
3.000000e+04 5.959915e+01
