# material=U density=19.05
# Photon Energy [eV]  Attenuation Length [um]
1.000000e+01 1.825022e-02
1.016170e+01 1.870838e-02
1.032610e+01 1.917812e-02
1.049310e+01 1.966801e-02
1.066280e+01 2.022471e-02
1.083530e+01 2.079727e-02
1.101060e+01 2.138617e-02
1.118860e+01 2.199142e-02
1.136960e+01 2.261408e-02
1.155350e+01 2.325416e-02
1.174040e+01 2.389763e-02
1.193030e+01 2.453341e-02
1.212320e+01 2.518597e-02
1.231930e+01 2.585604e-02
1.251860e+01 2.654395e-02
1.272100e+01 2.725001e-02
1.292680e+01 2.797502e-02
1.313590e+01 2.871911e-02
1.334830e+01 2.948306e-02
1.356420e+01 3.028045e-02
1.378360e+01 3.111173e-02
1.400660e+01 3.196596e-02
1.423310e+01 3.284336e-02
1.446330e+01 3.374483e-02
1.469730e+01 3.467110e-02
1.493500e+01 3.562296e-02
1.517650e+01 3.656911e-02
1.542200e+01 3.753101e-02
1.567140e+01 3.851804e-02
1.592490e+01 3.953116e-02
1.618250e+01 4.057117e-02
1.644420e+01 4.153202e-02
1.671020e+01 4.209999e-02
1.698050e+01 4.267598e-02
1.725510e+01 4.278989e-02
1.753420e+01 4.242060e-02
1.781780e+01 4.187271e-02
1.810600e+01 3.873312e-02
1.839890e+01 3.536330e-02
1.869640e+01 3.093074e-02
1.899880e+01 2.293431e-02
1.930610e+01 1.626813e-02
1.961840e+01 1.153959e-02
1.993570e+01 9.849631e-03
2.025820e+01 8.670251e-03
2.058580e+01 8.238302e-03
2.091880e+01 7.827905e-03
2.125710e+01 7.530745e-03
2.160090e+01 7.283630e-03
2.195030e+01 7.044638e-03
2.230530e+01 6.855171e-03
2.266610e+01 6.746414e-03
2.303270e+01 6.639347e-03
2.340530e+01 6.534064e-03
2.378380e+01 6.430367e-03
2.416850e+01 6.328321e-03
2.455940e+01 6.271133e-03
2.495660e+01 6.256240e-03
2.536030e+01 6.241359e-03
2.577050e+01 6.226556e-03
2.618730e+01 6.211714e-03
2.661090e+01 6.196996e-03
2.704130e+01 6.182266e-03
2.747860e+01 6.194767e-03
2.792310e+01 6.273778e-03
2.837470e+01 6.353801e-03
2.883370e+01 6.434843e-03
2.930000e+01 6.516915e-03
2.977390e+01 6.600023e-03
3.025550e+01 6.684225e-03
3.074490e+01 6.774302e-03
3.124210e+01 6.865565e-03
3.174750e+01 6.958141e-03
3.226090e+01 7.051873e-03
3.278270e+01 7.146940e-03
3.331300e+01 7.243246e-03
3.385180e+01 7.340884e-03
3.439930e+01 7.439834e-03
3.495570e+01 7.540235e-03
3.552110e+01 7.641988e-03
3.609560e+01 7.745103e-03
3.667940e+01 7.849610e-03
3.727270e+01 7.955536e-03
3.787550e+01 8.062928e-03
3.848820e+01 8.171741e-03
3.911070e+01 8.281998e-03
3.974320e+01 8.393787e-03
4.038610e+01 8.507058e-03
4.103930e+01 8.621836e-03
4.170310e+01 8.805026e-03
4.237760e+01 9.026576e-03
4.306300e+01 9.253687e-03
4.375950e+01 9.486495e-03
4.446730e+01 9.725211e-03
4.518650e+01 9.969889e-03
4.591740e+01 1.022077e-02
4.666000e+01 1.047789e-02
4.741470e+01 1.074151e-02
4.818160e+01 1.105774e-02
4.896090e+01 1.139343e-02
4.975280e+01 1.173926e-02
5.055760e+01 1.209572e-02
5.137530e+01 1.246297e-02
5.220620e+01 1.284131e-02
5.305060e+01 1.323117e-02
5.390870e+01 1.363287e-02
5.478060e+01 1.404669e-02
5.566670e+01 1.461078e-02
5.656700e+01 1.524253e-02
5.748200e+01 1.590150e-02
5.841170e+01 1.658911e-02
5.935640e+01 1.730616e-02
6.031650e+01 1.805452e-02
6.129210e+01 1.883512e-02
6.228340e+01 1.964942e-02
6.329080e+01 2.049897e-02
6.431450e+01 2.138526e-02
6.535470e+01 2.238569e-02
6.641180e+01 2.365744e-02
6.748590e+01 2.500145e-02
6.857750e+01 2.642178e-02
6.968670e+01 2.792286e-02
7.081380e+01 2.950913e-02
7.195910e+01 3.118558e-02
7.312300e+01 3.328524e-02
7.430570e+01 3.560495e-02
7.550760e+01 3.808622e-02
7.672890e+01 4.074044e-02
7.796990e+01 4.357965e-02
7.923100e+01 4.826589e-02
8.051250e+01 5.524117e-02
8.181470e+01 6.322436e-02
8.313800e+01 7.349244e-02
8.448270e+01 8.564541e-02
8.584910e+01 9.886813e-02
8.723770e+01 1.093551e-01
8.864870e+01 1.209532e-01
9.008250e+01 1.299786e-01
9.153950e+01 1.359631e-01
9.302010e+01 1.384385e-01
9.452460e+01 1.319014e-01
9.605350e+01 8.111045e-02
9.760710e+01 3.581484e-02
9.918580e+01 1.581459e-02
1.007900e+02 1.212555e-02
1.024200e+02 1.649322e-02
1.040770e+02 2.243446e-02
1.057600e+02 2.444836e-02
1.074710e+02 2.580979e-02
1.092090e+02 2.628011e-02
1.109750e+02 2.623728e-02
1.127700e+02 3.932491e-03
1.145940e+02 3.601029e-03
1.164480e+02 3.602953e-03
1.183310e+02 4.034113e-03
1.202450e+02 4.835359e-03
1.221900e+02 5.515861e-03
1.241660e+02 6.300336e-03
1.261750e+02 7.300299e-03
1.282150e+02 8.458855e-03
1.302890e+02 9.801312e-03
1.323970e+02 1.135689e-02
1.345380e+02 1.280606e-02
1.367140e+02 1.370635e-02
1.389250e+02 1.466989e-02
1.411720e+02 1.570123e-02
1.434560e+02 1.680516e-02
1.457760e+02 1.798658e-02
1.481340e+02 1.925106e-02
1.505300e+02 2.060446e-02
1.529640e+02 2.209917e-02
1.554390e+02 2.383616e-02
1.579530e+02 2.570955e-02
1.605070e+02 2.772998e-02
1.631030e+02 2.990950e-02
1.657420e+02 3.226045e-02
1.684220e+02 3.479567e-02
1.711460e+02 3.753052e-02
1.739150e+02 4.088286e-02
1.767270e+02 4.467199e-02
1.795860e+02 4.881245e-02
1.824910e+02 5.333654e-02
1.854420e+02 5.827997e-02
1.884420e+02 6.368190e-02
1.914890e+02 6.958375e-02
1.945870e+02 7.603352e-02
1.977340e+02 8.106727e-02
2.009320e+02 8.601889e-02
2.041820e+02 9.127298e-02
2.074850e+02 9.684809e-02
2.108400e+02 1.027633e-01
2.142510e+02 1.090406e-01
2.177160e+02 1.157008e-01
2.212370e+02 1.227675e-01
2.248160e+02 1.302666e-01
2.284520e+02 1.379855e-01
2.321470e+02 1.461030e-01
2.359020e+02 1.546980e-01
2.397170e+02 1.637981e-01
2.435950e+02 1.719659e-01
2.475350e+02 1.798621e-01
2.515380e+02 1.881204e-01
2.556070e+02 1.967586e-01
2.597410e+02 2.057934e-01
2.639420e+02 2.137059e-01
2.682110e+02 2.200674e-01
2.725490e+02 2.266181e-01
2.769570e+02 2.333631e-01
2.814370e+02 2.403095e-01
2.859890e+02 2.474626e-01
2.906150e+02 2.510857e-01
2.953150e+02 2.541827e-01
3.000920e+02 2.573180e-01
3.049450e+02 2.604923e-01
3.098780e+02 2.637063e-01
3.148900e+02 2.669593e-01
3.199830e+02 2.693056e-01
3.251580e+02 2.698935e-01
3.304180e+02 2.704842e-01
3.357620e+02 2.710751e-01
3.411920e+02 2.716668e-01
3.467110e+02 2.722611e-01
3.523190e+02 2.728563e-01
3.580170e+02 2.708484e-01
3.638080e+02 2.663965e-01
3.696920e+02 2.620163e-01
3.756720e+02 2.577093e-01
3.817480e+02 2.534730e-01
3.879220e+02 2.493055e-01
3.941970e+02 2.431462e-01
4.005730e+02 2.350769e-01
4.070520e+02 2.272754e-01
4.136350e+02 2.197322e-01
4.203260e+02 2.124404e-01
4.271240e+02 2.009411e-01
4.340320e+02 1.891901e-01
4.410520e+02 1.781268e-01
4.481860e+02 1.677104e-01
4.554350e+02 1.579669e-01
4.628020e+02 1.488792e-01
4.702870e+02 1.403142e-01
4.778940e+02 1.325242e-01
4.856230e+02 1.254985e-01
4.934780e+02 1.188461e-01
5.014590e+02 1.125455e-01
5.095700e+02 1.076644e-01
5.178120e+02 1.033491e-01
5.261870e+02 9.920649e-02
5.346980e+02 9.523004e-02
5.433460e+02 9.156120e-02
5.521340e+02 8.840096e-02
5.610650e+02 8.534978e-02
5.701390e+02 8.303716e-02
5.793610e+02 8.147149e-02
5.887320e+02 8.001870e-02
5.982540e+02 8.087790e-02
6.079300e+02 8.174682e-02
6.177630e+02 8.284057e-02
6.277550e+02 8.496478e-02
6.379080e+02 8.653500e-02
6.482260e+02 8.735917e-02
6.587110e+02 8.761974e-02
6.693650e+02 8.738302e-02
6.801910e+02 8.714650e-02
6.911930e+02 8.598030e-02
7.023720e+02 8.391147e-02
7.137330e+02 8.188330e-02
7.252770e+02 7.976433e-02
7.370080e+02 7.770031e-02
7.489280e+02 7.569817e-02
7.610420e+02 7.389991e-02
7.733510e+02 7.214416e-02
7.858590e+02 7.043025e-02
7.985700e+02 6.894134e-02
8.114860e+02 6.767119e-02
8.246110e+02 6.642432e-02
8.379490e+02 6.520055e-02
8.515020e+02 6.517437e-02
8.652740e+02 6.525920e-02
8.792690e+02 6.534426e-02
8.934910e+02 6.591419e-02
9.079430e+02 6.698832e-02
9.226280e+02 6.807991e-02
9.375510e+02 6.943783e-02
9.527150e+02 7.088092e-02
9.681240e+02 7.204647e-02
9.837830e+02 7.274234e-02
9.996950e+02 7.344502e-02
1.015860e+03 7.415431e-02
1.032290e+03 8.496009e-02
1.048990e+03 8.691610e-02
1.065960e+03 8.846858e-02
1.083200e+03 9.066088e-02
1.100720e+03 9.294862e-02
1.118520e+03 9.529372e-02
1.136610e+03 9.769830e-02
1.155000e+03 1.001640e-01
1.173680e+03 1.026912e-01
1.192660e+03 1.052822e-01
1.211950e+03 1.079388e-01
1.231550e+03 1.106626e-01
1.251470e+03 1.134547e-01
1.271720e+03 1.163186e-01
1.292290e+03 1.192536e-01
1.313190e+03 1.222629e-01
1.334430e+03 1.259528e-01
1.356010e+03 1.298923e-01
1.377940e+03 1.339554e-01
1.400230e+03 1.381458e-01
1.422880e+03 1.424670e-01
1.445890e+03 1.469225e-01
1.469280e+03 1.515186e-01
1.493040e+03 1.562578e-01
1.517190e+03 1.611453e-01
1.541730e+03 1.661860e-01
1.566670e+03 1.713848e-01
1.592010e+03 1.767458e-01
1.617760e+03 1.822741e-01
1.643920e+03 1.879748e-01
1.670510e+03 1.945491e-01
1.697530e+03 2.016158e-01
1.724990e+03 2.089406e-01
1.752890e+03 2.165306e-01
1.781240e+03 2.243959e-01
1.810050e+03 2.325469e-01
1.839320e+03 2.409934e-01
1.869070e+03 2.497480e-01
1.899300e+03 2.588201e-01
1.930020e+03 2.682219e-01
1.961240e+03 2.779662e-01
1.992960e+03 2.880635e-01
2.025200e+03 2.985275e-01
2.057950e+03 3.093709e-01
2.091240e+03 3.206100e-01
2.125060e+03 3.322573e-01
2.159430e+03 3.443250e-01
2.194360e+03 3.568351e-01
2.229850e+03 3.697957e-01
2.265920e+03 3.832303e-01
2.302570e+03 3.974773e-01
2.339810e+03 4.125839e-01
2.377660e+03 4.282663e-01
2.416110e+03 4.445439e-01
2.455190e+03 4.614386e-01
2.494900e+03 4.789763e-01
2.535260e+03 4.971849e-01
2.576260e+03 5.160812e-01
2.617930e+03 5.356972e-01
2.660270e+03 5.560563e-01
2.703300e+03 5.771911e-01
2.747030e+03 5.991293e-01
2.791460e+03 6.219022e-01
2.836610e+03 6.455423e-01
2.882490e+03 6.700756e-01
2.929110e+03 6.955447e-01
2.976480e+03 7.219781e-01
3.024630e+03 7.490090e-01
3.073550e+03 7.768871e-01
3.123260e+03 8.058121e-01
3.173780e+03 8.358113e-01
3.225110e+03 8.690924e-01
3.277270e+03 9.078914e-01
3.330280e+03 9.484230e-01
3.384150e+03 9.907609e-01
3.438880e+03 1.034982e+00
3.494500e+03 1.081186e+00
3.551020e+03 1.129446e+00
3.551600e+03 1.129949e+00
3.551800e+03 4.409472e-01
3.608460e+03 4.689059e-01
3.666820e+03 4.990617e-01
3.726130e+03 5.238432e-01
3.727500e+03 5.244256e-01
3.727700e+03 3.916696e-01
3.786400e+03 4.036302e-01
3.847640e+03 4.162919e-01
3.909870e+03 4.293530e-01
3.973110e+03 4.410490e-01
4.037380e+03 4.515990e-01
4.102680e+03 4.626818e-01
4.169030e+03 4.771101e-01
4.236460e+03 4.919869e-01
4.303300e+03 5.069504e-01
4.303500e+03 4.380285e-01
4.304980e+03 4.383685e-01
4.374620e+03 4.545476e-01
4.445370e+03 4.713214e-01
4.517270e+03 4.887170e-01
4.590330e+03 5.073201e-01
4.664580e+03 5.273823e-01
4.740030e+03 5.473313e-01
4.816690e+03 5.652282e-01
4.894600e+03 5.837111e-01
4.973770e+03 6.028004e-01
5.054210e+03 6.225095e-01
5.135960e+03 6.428661e-01
5.182100e+03 6.545016e-01
5.182300e+03 6.251899e-01
5.219030e+03 6.347010e-01
5.303440e+03 6.568491e-01
5.389220e+03 6.797704e-01
5.476390e+03 7.034932e-01
5.564970e+03 7.280442e-01
5.654980e+03 7.534470e-01
5.746440e+03 7.816902e-01
5.839390e+03 8.117189e-01
5.933830e+03 8.429038e-01
6.029810e+03 8.752845e-01
6.127330e+03 9.089067e-01
6.226440e+03 9.438216e-01
6.327150e+03 9.800813e-01
6.429480e+03 1.015140e+00
6.533480e+03 1.050183e+00
6.639150e+03 1.086436e+00
6.746540e+03 1.123935e+00
6.855650e+03 1.162734e+00
6.966540e+03 1.202867e+00
7.079220e+03 1.244393e+00
7.193720e+03 1.287352e+00
7.310070e+03 1.331787e+00
7.428310e+03 1.377759e+00
7.548450e+03 1.431984e+00
7.670540e+03 1.495759e+00
7.794610e+03 1.562369e+00
7.920680e+03 1.631935e+00
8.048790e+03 1.704613e+00
8.178980e+03 1.780063e+00
8.311260e+03 1.848718e+00
8.445690e+03 1.920014e+00
8.582290e+03 1.994060e+00
8.721110e+03 2.070976e+00
8.862160e+03 2.159015e+00
9.005500e+03 2.260595e+00
9.151160e+03 2.366975e+00
9.299170e+03 2.466139e+00
9.449580e+03 2.551932e+00
9.602420e+03 2.465760e+00
9.757730e+03 2.542180e+00
9.915550e+03 2.648932e+00
1.007590e+04 2.761077e+00
1.023890e+04 2.878287e+00
1.040450e+04 3.000777e+00
1.057280e+04 3.128818e+00
1.074380e+04 3.262618e+00
1.091760e+04 3.402495e+00
1.109420e+04 3.548705e+00
1.127360e+04 3.701538e+00
1.145590e+04 3.861310e+00
1.164120e+04 4.028373e+00
1.182950e+04 4.203054e+00
1.202080e+04 4.385688e+00
1.221530e+04 4.576722e+00
1.241280e+04 4.776436e+00
1.261360e+04 4.985365e+00
1.281760e+04 5.203863e+00
1.302500e+04 5.432463e+00
1.323560e+04 5.671543e+00
1.344970e+04 5.921698e+00
1.366720e+04 6.183412e+00
1.388830e+04 6.457286e+00
1.411290e+04 6.743858e+00
1.434120e+04 7.043797e+00
1.457310e+04 7.357694e+00
1.480890e+04 7.686324e+00
1.504840e+04 8.030311e+00
1.529180e+04 8.390453e+00
1.553910e+04 8.767526e+00
1.579040e+04 9.162408e+00
1.604580e+04 9.575974e+00
1.630540e+04 1.000922e+01
1.656910e+04 1.046298e+01
1.683710e+04 1.093842e+01
1.710940e+04 1.143656e+01
1.716620e+04 1.154226e+01
1.716640e+04 4.767428e+00
1.738610e+04 4.933651e+00
1.766740e+04 5.151724e+00
1.795310e+04 5.379334e+00
1.824350e+04 5.617041e+00
1.853860e+04 5.865247e+00
1.883840e+04 6.124398e+00
1.914310e+04 6.395006e+00
1.945270e+04 6.677555e+00
1.976740e+04 6.972617e+00
2.008710e+04 7.280679e+00
2.041200e+04 7.602359e+00
2.074210e+04 7.938214e+00
2.094750e+04 8.151814e+00
2.094770e+04 5.750655e+00
2.107760e+04 5.842056e+00
2.141850e+04 6.086126e+00
2.175730e+04 6.334676e+00
2.175750e+04 5.578371e+00
2.176500e+04 5.582945e+00
2.211700e+04 5.802461e+00
2.247470e+04 6.031777e+00
2.283820e+04 6.271383e+00
2.320760e+04 6.521609e+00
2.358300e+04 6.783093e+00
2.396440e+04 7.056151e+00
2.435200e+04 7.341398e+00
2.474590e+04 7.639393e+00
2.514620e+04 7.950696e+00
2.555290e+04 8.275853e+00
2.596620e+04 8.615536e+00
2.638610e+04 8.970347e+00
2.681290e+04 9.341030e+00
2.724660e+04 9.728262e+00
2.768730e+04 1.013278e+01
2.813510e+04 1.055535e+01
2.859020e+04 1.099681e+01
2.905260e+04 1.145798e+01
2.952250e+04 1.193978e+01
3.000000e+04 1.244309e+01
