# material=V density=6.11
# Photon Energy [eV]  Attenuation Length [um]
1.000000e+01 1.861097e-02
1.016170e+01 1.800763e-02
1.032610e+01 1.742406e-02
1.049310e+01 1.685929e-02
1.066280e+01 1.631284e-02
1.083530e+01 1.578416e-02
1.101060e+01 1.527269e-02
1.118860e+01 1.477751e-02
1.136960e+01 1.432465e-02
1.155350e+01 1.397669e-02
1.174040e+01 1.363724e-02
1.193030e+01 1.330600e-02
1.212320e+01 1.298267e-02
1.231930e+01 1.266733e-02
1.251860e+01 1.242825e-02
1.272100e+01 1.227885e-02
1.292680e+01 1.213140e-02
1.313590e+01 1.198565e-02
1.334830e+01 1.184156e-02
1.356420e+01 1.169931e-02
1.378360e+01 1.156375e-02
1.400660e+01 1.143787e-02
1.423310e+01 1.131331e-02
1.446330e+01 1.119926e-02
1.469730e+01 1.123559e-02
1.493500e+01 1.127196e-02
1.517650e+01 1.130845e-02
1.542200e+01 1.120668e-02
1.567140e+01 1.105803e-02
1.592490e+01 1.091134e-02
1.618250e+01 1.076663e-02
1.644420e+01 1.076175e-02
1.671020e+01 1.077332e-02
1.698050e+01 1.078492e-02
1.725510e+01 1.079652e-02
1.753420e+01 1.080814e-02
1.781780e+01 1.081976e-02
1.810600e+01 1.096587e-02
1.839890e+01 1.119016e-02
1.869640e+01 1.141894e-02
1.899880e+01 1.165249e-02
1.930610e+01 1.189080e-02
1.961840e+01 1.213400e-02
1.993570e+01 1.238212e-02
2.025820e+01 1.269549e-02
2.058580e+01 1.315978e-02
2.091880e+01 1.364113e-02
2.125710e+01 1.413999e-02
2.160090e+01 1.465715e-02
2.195030e+01 1.524626e-02
2.230530e+01 1.592482e-02
2.266610e+01 1.663209e-02
2.303270e+01 1.733714e-02
2.340530e+01 1.807212e-02
2.378380e+01 1.883811e-02
2.416850e+01 1.951232e-02
2.455940e+01 2.017877e-02
2.495660e+01 2.086797e-02
2.536030e+01 2.159877e-02
2.577050e+01 2.235166e-02
2.618730e+01 2.313085e-02
2.661090e+01 2.393721e-02
2.704130e+01 2.477163e-02
2.747860e+01 2.590981e-02
2.792310e+01 2.722219e-02
2.837470e+01 2.860099e-02
2.883370e+01 3.004969e-02
2.930000e+01 3.127866e-02
2.977390e+01 3.218656e-02
3.025550e+01 3.312083e-02
3.074490e+01 3.406215e-02
3.124210e+01 3.437083e-02
3.174750e+01 3.468227e-02
3.226090e+01 3.499653e-02
3.278270e+01 3.502467e-02
3.331300e+01 3.469417e-02
3.385180e+01 3.436671e-02
3.439930e+01 3.404236e-02
3.495570e+01 3.372119e-02
3.552110e+01 3.337672e-02
3.609560e+01 3.237004e-02
3.667940e+01 3.139376e-02
3.727270e+01 3.044688e-02
3.787550e+01 2.952866e-02
3.848820e+01 2.803284e-02
3.911070e+01 2.628347e-02
3.974320e+01 2.464313e-02
4.038610e+01 2.266019e-02
4.103930e+01 2.039203e-02
4.170310e+01 1.835090e-02
4.237760e+01 1.681334e-02
4.306300e+01 1.540752e-02
4.375950e+01 1.449715e-02
4.446730e+01 1.382920e-02
4.518650e+01 1.330539e-02
4.591740e+01 1.295977e-02
4.666000e+01 1.262309e-02
4.741470e+01 1.236903e-02
4.818160e+01 1.229654e-02
4.896090e+01 1.252702e-02
4.975280e+01 1.276181e-02
5.055760e+01 1.300101e-02
5.137530e+01 1.324467e-02
5.220620e+01 1.351074e-02
5.305060e+01 1.379454e-02
5.390870e+01 1.408434e-02
5.478060e+01 1.438020e-02
5.566670e+01 1.493397e-02
5.656700e+01 1.559668e-02
5.748200e+01 1.628888e-02
5.841170e+01 1.701175e-02
5.935640e+01 1.776668e-02
6.031650e+01 1.867509e-02
6.129210e+01 1.963040e-02
6.228340e+01 2.063452e-02
6.329080e+01 2.160258e-02
6.431450e+01 2.252310e-02
6.535470e+01 2.344478e-02
6.641180e+01 2.433645e-02
6.748590e+01 2.526204e-02
6.857750e+01 2.622282e-02
6.968670e+01 2.722015e-02
7.081380e+01 2.825538e-02
7.195910e+01 2.932997e-02
7.312300e+01 3.044547e-02
7.430570e+01 3.163615e-02
7.550760e+01 3.287949e-02
7.672890e+01 3.417162e-02
7.796990e+01 3.528675e-02
7.923100e+01 3.605224e-02
8.051250e+01 3.683432e-02
8.181470e+01 3.763342e-02
8.313800e+01 3.844984e-02
8.448270e+01 3.928393e-02
8.584910e+01 4.013623e-02
8.723770e+01 4.100691e-02
8.864870e+01 4.162622e-02
9.008250e+01 4.214875e-02
9.153950e+01 4.267787e-02
9.302010e+01 4.321370e-02
9.452460e+01 4.375618e-02
9.605350e+01 4.430554e-02
9.760710e+01 4.486173e-02
9.918580e+01 4.542484e-02
1.007900e+02 4.599516e-02
1.024200e+02 4.657242e-02
1.040770e+02 4.715737e-02
1.057600e+02 4.774916e-02
1.074710e+02 4.825992e-02
1.092090e+02 4.873420e-02
1.109750e+02 4.921302e-02
1.127700e+02 4.969680e-02
1.145940e+02 5.018528e-02
1.164480e+02 5.067876e-02
1.183310e+02 5.117675e-02
1.202450e+02 5.170566e-02
1.221900e+02 5.256323e-02
1.241660e+02 5.343484e-02
1.261750e+02 5.432136e-02
1.282150e+02 5.522183e-02
1.302890e+02 5.613779e-02
1.323970e+02 5.706903e-02
1.345380e+02 5.801537e-02
1.367140e+02 5.897822e-02
1.389250e+02 5.997213e-02
1.411720e+02 6.098279e-02
1.434560e+02 6.201079e-02
1.457760e+02 6.305574e-02
1.481340e+02 6.411853e-02
1.505300e+02 6.519921e-02
1.529640e+02 6.629765e-02
1.554390e+02 6.741535e-02
1.579530e+02 6.855146e-02
1.605070e+02 6.970646e-02
1.631030e+02 7.088111e-02
1.657420e+02 7.207618e-02
1.684220e+02 7.362738e-02
1.711460e+02 7.522017e-02
1.739150e+02 7.684784e-02
1.767270e+02 7.850972e-02
1.795860e+02 8.020855e-02
1.824910e+02 8.194380e-02
1.854420e+02 8.371626e-02
1.884420e+02 8.552757e-02
1.914890e+02 8.737728e-02
1.945870e+02 8.935622e-02
1.977340e+02 9.169823e-02
2.009320e+02 9.410217e-02
2.041820e+02 9.656903e-02
2.074850e+02 9.910087e-02
2.108400e+02 1.016984e-01
2.142510e+02 1.043646e-01
2.177160e+02 1.071004e-01
2.212370e+02 1.099079e-01
2.248160e+02 1.127894e-01
2.284520e+02 1.157461e-01
2.321470e+02 1.187803e-01
2.359020e+02 1.218943e-01
2.397170e+02 1.250893e-01
2.435950e+02 1.286896e-01
2.475350e+02 1.323999e-01
2.515380e+02 1.362175e-01
2.556070e+02 1.401452e-01
2.597410e+02 1.441862e-01
2.639420e+02 1.483436e-01
2.682110e+02 1.526210e-01
2.725490e+02 1.570214e-01
2.769570e+02 1.615489e-01
2.814370e+02 1.662075e-01
2.859890e+02 1.709992e-01
2.906150e+02 1.759303e-01
2.953150e+02 1.814388e-01
3.000920e+02 1.873299e-01
3.049450e+02 1.934117e-01
3.098780e+02 1.996927e-01
3.148900e+02 2.061762e-01
3.199830e+02 2.128707e-01
3.251580e+02 2.197817e-01
3.304180e+02 2.269182e-01
3.357620e+02 2.342857e-01
3.411920e+02 2.418919e-01
3.467110e+02 2.497457e-01
3.523190e+02 2.578548e-01
3.580170e+02 2.664923e-01
3.638080e+02 2.756483e-01
3.696920e+02 2.851198e-01
3.756720e+02 2.949161e-01
3.817480e+02 3.050489e-01
3.879220e+02 3.155295e-01
3.941970e+02 3.263707e-01
4.005730e+02 3.375844e-01
4.070520e+02 3.491832e-01
4.136350e+02 3.611792e-01
4.203260e+02 3.748573e-01
4.271240e+02 3.891509e-01
4.340320e+02 4.039904e-01
4.410520e+02 4.193945e-01
4.481860e+02 4.353870e-01
4.554350e+02 4.516974e-01
4.628020e+02 4.667944e-01
4.702870e+02 4.823939e-01
4.778940e+02 4.985174e-01
4.856230e+02 5.150956e-01
4.934780e+02 5.312628e-01
5.014590e+02 5.479322e-01
5.095700e+02 5.651257e-01
5.120000e+02 5.703298e-01
5.122000e+02 6.393926e-02
5.178120e+02 6.550195e-02
5.261870e+02 6.787352e-02
5.346980e+02 7.032989e-02
5.433460e+02 7.287571e-02
5.521340e+02 7.551435e-02
5.610650e+02 7.833149e-02
5.701390e+02 8.112345e-02
5.793610e+02 8.278579e-02
5.887320e+02 8.415396e-02
5.982540e+02 8.533098e-02
6.079300e+02 8.652361e-02
6.177630e+02 8.773339e-02
6.277550e+02 8.900889e-02
6.379080e+02 9.092151e-02
6.482260e+02 9.382027e-02
6.587110e+02 9.746230e-02
6.693650e+02 1.012449e-01
6.801910e+02 1.049405e-01
6.911930e+02 1.085825e-01
7.023720e+02 1.123048e-01
7.137330e+02 1.163399e-01
7.252770e+02 1.206535e-01
7.370080e+02 1.251307e-01
7.489280e+02 1.297768e-01
7.610420e+02 1.345976e-01
7.733510e+02 1.396072e-01
7.858590e+02 1.448774e-01
7.985700e+02 1.504089e-01
8.114860e+02 1.561503e-01
8.246110e+02 1.621065e-01
8.379490e+02 1.682880e-01
8.515020e+02 1.747298e-01
8.652740e+02 1.814431e-01
8.792690e+02 1.884369e-01
8.934910e+02 1.957022e-01
9.079430e+02 2.032472e-01
9.226280e+02 2.110827e-01
9.375510e+02 2.193765e-01
9.527150e+02 2.280384e-01
9.681240e+02 2.370805e-01
9.837830e+02 2.464826e-01
9.996950e+02 2.562572e-01
1.015860e+03 2.664169e-01
1.032290e+03 2.769831e-01
1.048990e+03 2.880783e-01
1.065960e+03 2.997418e-01
1.083200e+03 3.118765e-01
1.100720e+03 3.245027e-01
1.118520e+03 3.376389e-01
1.136610e+03 3.513063e-01
1.155000e+03 3.655306e-01
1.173680e+03 3.803296e-01
1.192660e+03 3.957236e-01
1.211950e+03 4.117443e-01
1.231550e+03 4.284144e-01
1.251470e+03 4.458610e-01
1.271720e+03 4.641286e-01
1.292290e+03 4.832817e-01
1.313190e+03 5.032311e-01
1.334430e+03 5.240070e-01
1.356010e+03 5.456409e-01
1.377940e+03 5.681631e-01
1.400230e+03 5.916213e-01
1.422880e+03 6.160564e-01
1.445890e+03 6.414749e-01
1.469280e+03 6.680312e-01
1.493040e+03 6.958236e-01
1.517190e+03 7.252992e-01
1.541730e+03 7.560911e-01
1.566670e+03 7.881826e-01
1.592010e+03 8.216633e-01
1.617760e+03 8.565633e-01
1.643920e+03 8.929235e-01
1.670510e+03 9.308540e-01
1.697530e+03 9.703908e-01
1.724990e+03 1.011594e+00
1.752890e+03 1.054937e+00
1.781240e+03 1.100273e+00
1.810050e+03 1.147670e+00
1.839320e+03 1.197114e+00
1.869070e+03 1.248706e+00
1.899300e+03 1.302532e+00
1.930020e+03 1.358674e+00
1.961240e+03 1.417224e+00
1.992960e+03 1.478247e+00
2.025200e+03 1.541482e+00
2.057950e+03 1.608161e+00
2.091240e+03 1.677926e+00
2.125060e+03 1.750749e+00
2.159430e+03 1.826807e+00
2.194360e+03 1.906233e+00
2.229850e+03 1.989201e+00
2.265920e+03 2.075839e+00
2.302570e+03 2.166319e+00
2.339810e+03 2.260820e+00
2.377660e+03 2.359553e+00
2.416110e+03 2.462653e+00
2.455190e+03 2.570318e+00
2.494900e+03 2.682796e+00
2.535260e+03 2.800302e+00
2.576260e+03 2.923007e+00
2.617930e+03 3.051165e+00
2.660270e+03 3.185067e+00
2.703300e+03 3.324972e+00
2.747030e+03 3.471069e+00
2.791460e+03 3.623694e+00
2.836610e+03 3.783138e+00
2.882490e+03 3.949717e+00
2.929110e+03 4.123798e+00
2.976480e+03 4.305616e+00
3.024630e+03 4.495560e+00
3.073550e+03 4.694089e+00
3.123260e+03 4.901491e+00
3.173780e+03 5.118123e+00
3.225110e+03 5.344493e+00
3.277270e+03 5.581003e+00
3.330280e+03 5.828426e+00
3.384150e+03 6.086744e+00
3.438880e+03 6.356681e+00
3.494500e+03 6.638929e+00
3.551020e+03 6.933935e+00
3.608460e+03 7.242191e+00
3.666820e+03 7.564344e+00
3.726130e+03 7.901130e+00
3.786400e+03 8.253224e+00
3.847640e+03 8.621321e+00
3.909870e+03 9.006149e+00
3.973110e+03 9.408314e+00
4.037380e+03 9.829255e+00
4.102680e+03 1.026877e+01
4.169030e+03 1.072905e+01
4.236460e+03 1.121013e+01
4.304980e+03 1.171286e+01
4.374620e+03 1.223944e+01
4.445370e+03 1.278981e+01
4.517270e+03 1.336603e+01
4.590330e+03 1.396800e+01
4.664580e+03 1.459896e+01
4.740030e+03 1.525854e+01
4.816690e+03 1.594803e+01
4.894600e+03 1.667105e+01
4.973770e+03 1.742739e+01
5.054210e+03 1.821901e+01
5.135960e+03 1.904777e+01
5.219030e+03 1.991544e+01
5.303440e+03 2.082426e+01
5.389220e+03 2.177605e+01
5.465000e+03 2.263968e+01
5.465200e+03 2.700435e+00
5.476390e+03 2.713869e+00
5.564970e+03 2.821592e+00
5.654980e+03 2.934077e+00
5.746440e+03 3.051803e+00
5.839390e+03 3.174934e+00
5.933830e+03 3.303724e+00
6.029810e+03 3.438451e+00
6.127330e+03 3.579444e+00
6.226440e+03 3.726921e+00
6.327150e+03 3.881216e+00
6.429480e+03 4.042602e+00
6.533480e+03 4.211520e+00
6.639150e+03 4.388298e+00
6.746540e+03 4.573168e+00
6.855650e+03 4.766532e+00
6.966540e+03 4.969020e+00
7.079220e+03 5.180882e+00
7.193720e+03 5.402511e+00
7.310070e+03 5.634566e+00
7.428310e+03 5.877298e+00
7.548450e+03 6.131306e+00
7.670540e+03 6.397274e+00
7.794610e+03 6.675501e+00
7.920680e+03 6.966837e+00
8.048790e+03 7.271826e+00
8.178980e+03 7.590974e+00
8.311260e+03 7.925127e+00
8.445690e+03 8.275059e+00
8.582290e+03 8.641237e+00
8.721110e+03 9.024723e+00
8.862160e+03 9.426197e+00
9.005500e+03 9.846121e+00
9.151160e+03 1.028653e+01
9.299170e+03 1.074728e+01
9.449580e+03 1.122998e+01
9.602420e+03 1.173527e+01
9.757730e+03 1.226420e+01
9.915550e+03 1.281815e+01
1.007590e+04 1.339855e+01
1.023890e+04 1.400655e+01
1.040450e+04 1.464337e+01
1.057280e+04 1.531037e+01
1.074380e+04 1.600905e+01
1.091760e+04 1.674104e+01
1.109420e+04 1.750777e+01
1.127360e+04 1.831097e+01
1.145590e+04 1.915235e+01
1.164120e+04 2.003403e+01
1.182950e+04 2.095772e+01
1.202080e+04 2.192558e+01
1.221530e+04 2.293986e+01
1.241280e+04 2.400237e+01
1.261360e+04 2.511602e+01
1.281760e+04 2.628289e+01
1.302500e+04 2.750599e+01
1.323560e+04 2.878740e+01
1.344970e+04 3.013058e+01
1.366720e+04 3.153822e+01
1.388830e+04 3.301376e+01
1.411290e+04 3.456016e+01
1.434120e+04 3.618117e+01
1.457310e+04 3.788020e+01
1.480890e+04 3.966152e+01
1.504840e+04 4.152857e+01
1.529180e+04 4.348586e+01
1.553910e+04 4.553775e+01
1.579040e+04 4.768886e+01
1.604580e+04 4.994428e+01
1.630540e+04 5.230925e+01
1.656910e+04 5.478842e+01
1.683710e+04 5.738815e+01
1.710940e+04 6.011390e+01
1.738610e+04 6.297209e+01
1.766740e+04 6.596959e+01
1.795310e+04 6.911243e+01
1.824350e+04 7.240862e+01
1.853860e+04 7.586544e+01
1.883840e+04 7.949038e+01
1.914310e+04 8.329234e+01
1.945270e+04 8.727968e+01
1.976740e+04 9.146232e+01
2.008710e+04 9.584871e+01
2.041200e+04 1.004501e+02
2.074210e+04 1.052759e+02
2.107760e+04 1.103389e+02
2.141850e+04 1.156493e+02
2.176500e+04 1.212205e+02
2.211700e+04 1.270647e+02
2.247470e+04 1.331955e+02
2.283820e+04 1.396278e+02
2.320760e+04 1.463764e+02
2.358300e+04 1.534568e+02
2.396440e+04 1.608848e+02
2.435200e+04 1.686795e+02
2.474590e+04 1.768577e+02
2.514620e+04 1.854392e+02
2.555290e+04 1.944438e+02
2.596620e+04 2.038925e+02
2.638610e+04 2.138084e+02
2.681290e+04 2.242138e+02
2.724660e+04 2.351336e+02
2.768730e+04 2.465938e+02
2.813510e+04 2.586211e+02
2.859020e+04 2.712447e+02
2.905260e+04 2.844932e+02
2.952250e+04 2.983992e+02
3.000000e+04 3.129942e+02
