# material=Y density=4.472
# Photon Energy [eV]  Attenuation Length [um]
1.000000e+01 2.090123e-02
1.016170e+01 2.127827e-02
1.032610e+01 2.166227e-02
1.049310e+01 2.205315e-02
1.066280e+01 2.245105e-02
1.083530e+01 2.285622e-02
1.101050e+01 2.329069e-02
1.118860e+01 2.390525e-02
1.136960e+01 2.453620e-02
1.155350e+01 2.518373e-02
1.174040e+01 2.584836e-02
1.193030e+01 2.653042e-02
1.212320e+01 2.723048e-02
1.231930e+01 2.806523e-02
1.251860e+01 2.895362e-02
1.272100e+01 2.986993e-02
1.292680e+01 3.081538e-02
1.313590e+01 3.179090e-02
1.334830e+01 3.279686e-02
1.356420e+01 3.384785e-02
1.378360e+01 3.561098e-02
1.400660e+01 3.746580e-02
1.423310e+01 3.941715e-02
1.446330e+01 4.147020e-02
1.469720e+01 4.368604e-02
1.493500e+01 4.604952e-02
1.517650e+01 4.854030e-02
1.542200e+01 5.116621e-02
1.567140e+01 5.393401e-02
1.592490e+01 5.688284e-02
1.618250e+01 6.002207e-02
1.644420e+01 6.333468e-02
1.671020e+01 6.682992e-02
1.698050e+01 7.051845e-02
1.725510e+01 7.400731e-02
1.753420e+01 7.738791e-02
1.781780e+01 8.092264e-02
1.810600e+01 8.461905e-02
1.839880e+01 8.848374e-02
1.869640e+01 9.252542e-02
1.899880e+01 9.523006e-02
1.930610e+01 9.731459e-02
1.961840e+01 9.944485e-02
1.993570e+01 1.016214e-01
2.025810e+01 1.038455e-01
2.058580e+01 1.054723e-01
2.091870e+01 1.055385e-01
2.125710e+01 1.056051e-01
2.160090e+01 1.056715e-01
2.195030e+01 1.049914e-01
2.230530e+01 1.027114e-01
2.266610e+01 1.004818e-01
2.303270e+01 9.830024e-02
2.340520e+01 9.604803e-02
2.378380e+01 9.116238e-02
2.416850e+01 8.652477e-02
2.455940e+01 8.212363e-02
2.495660e+01 7.794596e-02
2.536020e+01 7.228508e-02
2.577040e+01 6.299307e-02
2.618720e+01 5.489549e-02
2.661080e+01 4.783918e-02
2.704120e+01 3.870838e-02
2.747860e+01 2.687244e-02
2.792300e+01 1.865550e-02
2.837470e+01 1.295123e-02
2.883360e+01 9.517919e-03
2.930000e+01 9.050989e-03
2.977390e+01 8.607033e-03
3.025540e+01 8.184765e-03
3.074480e+01 7.978495e-03
3.124210e+01 7.943917e-03
3.174740e+01 7.909487e-03
3.226090e+01 7.875207e-03
3.278270e+01 7.996304e-03
3.331290e+01 8.172210e-03
3.385170e+01 8.352004e-03
3.439920e+01 8.577615e-03
3.495560e+01 9.260710e-03
3.552100e+01 9.886622e-03
3.609550e+01 1.049439e-02
3.667930e+01 1.113953e-02
3.727260e+01 1.182435e-02
3.787540e+01 1.255127e-02
3.848800e+01 1.332282e-02
3.911060e+01 1.414191e-02
3.974310e+01 1.501124e-02
4.038600e+01 1.614412e-02
4.103920e+01 1.745879e-02
4.170290e+01 1.888038e-02
4.237740e+01 2.041796e-02
4.306290e+01 2.208069e-02
4.375940e+01 2.387876e-02
4.446710e+01 2.582326e-02
4.518640e+01 2.794925e-02
4.591720e+01 3.063562e-02
4.665990e+01 3.358034e-02
4.741460e+01 3.680802e-02
4.818150e+01 4.034601e-02
4.896080e+01 4.422401e-02
4.975270e+01 4.846118e-02
5.055740e+01 5.190806e-02
5.137510e+01 5.560018e-02
5.220610e+01 5.955487e-02
5.305050e+01 6.379097e-02
5.390850e+01 6.832814e-02
5.478040e+01 7.318808e-02
5.566650e+01 7.821619e-02
5.656680e+01 8.341634e-02
5.748170e+01 8.896238e-02
5.841150e+01 9.487699e-02
5.935620e+01 1.011851e-01
6.031630e+01 1.077354e-01
6.129180e+01 1.143217e-01
6.228320e+01 1.213113e-01
6.329060e+01 1.287275e-01
6.431420e+01 1.365977e-01
6.535450e+01 1.448041e-01
6.641150e+01 1.526098e-01
6.748570e+01 1.608359e-01
6.857720e+01 1.695058e-01
6.968640e+01 1.786431e-01
7.081350e+01 1.853780e-01
7.195880e+01 1.912018e-01
7.312270e+01 1.972092e-01
7.430540e+01 2.034051e-01
7.550720e+01 2.097959e-01
7.672850e+01 2.163873e-01
7.796950e+01 2.231858e-01
7.923060e+01 2.301975e-01
8.051210e+01 2.364553e-01
8.181430e+01 2.413615e-01
8.313760e+01 2.463700e-01
8.448230e+01 2.514828e-01
8.584870e+01 2.562250e-01
8.723730e+01 2.605110e-01
8.864830e+01 2.648702e-01
9.008210e+01 2.692598e-01
9.153910e+01 2.730086e-01
9.301970e+01 2.768093e-01
9.452420e+01 2.806623e-01
9.605300e+01 2.861620e-01
9.760660e+01 2.930860e-01
9.918530e+01 3.001769e-01
1.007900e+02 3.069762e-01
1.024200e+02 3.134340e-01
1.040760e+02 3.200254e-01
1.057600e+02 3.267604e-01
1.074700e+02 3.336342e-01
1.092080e+02 3.406526e-01
1.109750e+02 3.454938e-01
1.127700e+02 3.484826e-01
1.145940e+02 3.514958e-01
1.164470e+02 3.545348e-01
1.183310e+02 3.576022e-01
1.202450e+02 3.611639e-01
1.221890e+02 3.680277e-01
1.241660e+02 3.750247e-01
1.261740e+02 3.821548e-01
1.282150e+02 3.894201e-01
1.302880e+02 3.963507e-01
1.323960e+02 4.004326e-01
1.345370e+02 4.045539e-01
1.367130e+02 4.087168e-01
1.389240e+02 4.129229e-01
1.411710e+02 4.166657e-01
1.434550e+02 4.199725e-01
1.457750e+02 4.232994e-01
1.481330e+02 4.266562e-01
1.500000e+02 4.292934e-01
1.505000e+02 4.048137e-01
1.510000e+02 4.292198e-01
1.515000e+02 4.202737e-01
1.520000e+02 4.422780e-01
1.525000e+02 4.281512e-01
1.530000e+02 4.289890e-01
1.535000e+02 4.278896e-01
1.540000e+02 4.401626e-01
1.545000e+02 4.324915e-01
1.550000e+02 3.678040e-01
1.555000e+02 3.675138e-01
1.560000e+02 3.614643e-01
1.565000e+02 3.863682e-01
1.570000e+02 3.496246e-01
1.575000e+02 3.632918e-01
1.580000e+02 3.450865e-01
1.585000e+02 3.752668e-01
1.590000e+02 3.581708e-01
1.595000e+02 3.642276e-01
1.600000e+02 3.733990e-01
1.605000e+02 3.597265e-01
1.610000e+02 3.575178e-01
1.615000e+02 3.431168e-01
1.620000e+02 3.339549e-01
1.625000e+02 3.198061e-01
1.630000e+02 3.197790e-01
1.640000e+02 3.044152e-01
1.645000e+02 2.911716e-01
1.650000e+02 2.919778e-01
1.655000e+02 2.825943e-01
1.665000e+02 2.675853e-01
1.670000e+02 2.613953e-01
1.675000e+02 2.645904e-01
1.680000e+02 2.617897e-01
1.685000e+02 2.553353e-01
1.690000e+02 2.565983e-01
1.695000e+02 2.515498e-01
1.700000e+02 2.536495e-01
1.705000e+02 2.537592e-01
1.710000e+02 2.453825e-01
1.715000e+02 2.461635e-01
1.720000e+02 2.379132e-01
1.725000e+02 2.412236e-01
1.730000e+02 2.302069e-01
1.735000e+02 2.276129e-01
1.740000e+02 2.200380e-01
1.750000e+02 2.112845e-01
1.765000e+02 1.934782e-01
1.770000e+02 1.893174e-01
1.775000e+02 1.824434e-01
1.780000e+02 1.741452e-01
1.785000e+02 1.649960e-01
1.789800e+02 1.517697e-01
1.800000e+02 1.428587e-01
1.810100e+02 1.325601e-01
1.820100e+02 1.245072e-01
1.849540e+02 1.164303e-01
1.860000e+02 1.137174e-01
1.870000e+02 1.153185e-01
1.880000e+02 1.130162e-01
1.890000e+02 1.138738e-01
1.910000e+02 1.119243e-01
1.920000e+02 1.117342e-01
1.930000e+02 1.104154e-01
1.940000e+02 1.100134e-01
1.970000e+02 1.046632e-01
1.990000e+02 1.004097e-01
2.000000e+02 9.763016e-02
2.010000e+02 9.418405e-02
2.030000e+02 9.012193e-02
2.040000e+02 8.789719e-02
2.060000e+02 8.475570e-02
2.070000e+02 8.371488e-02
2.090000e+02 8.325024e-02
2.100000e+02 8.130085e-02
2.110000e+02 8.114804e-02
2.144130e+02 7.949114e-02
2.150100e+02 7.920714e-02
2.160000e+02 7.864767e-02
2.170000e+02 7.847051e-02
2.180000e+02 7.778838e-02
2.190000e+02 7.802146e-02
2.200000e+02 7.711468e-02
2.210000e+02 7.732293e-02
2.220000e+02 7.658946e-02
2.230000e+02 7.703008e-02
2.240000e+02 7.643496e-02
2.250100e+02 7.539588e-02
2.270100e+02 7.477102e-02
2.306820e+02 7.375204e-02
2.344130e+02 7.373829e-02
2.382040e+02 7.368707e-02
2.400000e+02 7.361889e-02
2.420000e+02 7.372546e-02
2.430000e+02 7.412667e-02
2.440000e+02 7.347623e-02
2.470000e+02 7.351972e-02
2.500100e+02 7.301762e-02
2.510100e+02 7.317307e-02
2.520000e+02 7.295346e-02
2.550100e+02 7.346426e-02
2.560000e+02 7.326918e-02
2.600100e+02 7.321881e-02
2.630000e+02 7.350264e-02
2.640000e+02 7.330985e-02
2.680100e+02 7.363824e-02
2.700100e+02 7.422229e-02
2.710100e+02 7.419542e-02
2.730000e+02 7.456911e-02
2.740000e+02 7.508971e-02
2.750000e+02 7.475323e-02
2.760000e+02 7.521113e-02
2.780000e+02 7.517296e-02
2.790100e+02 7.457152e-02
2.800000e+02 7.462377e-02
2.810100e+02 7.421016e-02
2.830100e+02 7.780986e-02
2.840100e+02 7.608349e-02
2.850000e+02 7.621603e-02
2.860000e+02 7.690265e-02
2.870100e+02 7.644546e-02
2.880000e+02 7.752957e-02
2.890000e+02 7.899472e-02
2.910000e+02 7.779900e-02
2.920000e+02 7.757250e-02
2.930100e+02 7.661303e-02
2.940000e+02 7.618211e-02
2.950000e+02 7.483353e-02
2.960000e+02 7.208782e-02
2.970000e+02 6.748441e-02
2.980000e+02 6.511062e-02
2.990000e+02 6.458951e-02
3.000000e+02 6.494599e-02
3.010000e+02 6.579074e-02
3.020000e+02 6.784877e-02
3.030000e+02 6.922260e-02
3.040000e+02 7.014745e-02
3.060000e+02 7.100290e-02
3.070000e+02 7.101868e-02
3.080100e+02 7.048818e-02
3.090100e+02 6.877966e-02
3.100100e+02 6.810923e-02
3.110000e+02 6.822774e-02
3.130000e+02 6.944821e-02
3.140100e+02 7.068885e-02
3.160100e+02 7.200194e-02
3.210100e+02 7.386936e-02
3.230000e+02 7.413122e-02
3.250000e+02 7.462359e-02
3.290100e+02 7.484087e-02
3.300000e+02 7.522616e-02
3.309900e+02 7.521847e-02
3.330000e+02 7.574338e-02
3.340000e+02 7.575384e-02
3.390000e+02 7.691335e-02
3.409900e+02 7.757235e-02
3.420000e+02 7.773698e-02
3.440000e+02 7.849295e-02
3.470100e+02 7.904500e-02
3.480000e+02 7.967039e-02
3.490000e+02 7.959923e-02
3.500000e+02 8.000072e-02
3.556610e+02 8.123101e-02
3.614140e+02 8.247997e-02
3.672590e+02 8.374794e-02
3.731990e+02 8.503557e-02
3.792350e+02 8.634261e-02
3.853690e+02 8.767031e-02
3.916020e+02 8.901800e-02
3.979360e+02 9.038694e-02
4.043720e+02 9.204219e-02
4.109130e+02 9.385797e-02
4.175590e+02 9.570871e-02
4.243130e+02 9.759676e-02
4.311760e+02 9.952128e-02
4.381500e+02 1.014840e-01
4.452360e+02 1.034855e-01
4.524380e+02 1.058693e-01
4.597550e+02 1.090008e-01
4.671920e+02 1.122254e-01
4.747480e+02 1.155450e-01
4.824270e+02 1.189632e-01
4.902300e+02 1.224825e-01
4.981590e+02 1.261054e-01
5.062160e+02 1.298355e-01
5.144040e+02 1.336765e-01
5.227240e+02 1.376313e-01
5.311780e+02 1.417020e-01
5.397700e+02 1.458938e-01
5.485000e+02 1.502102e-01
5.573720e+02 1.546687e-01
5.663870e+02 1.593056e-01
5.755470e+02 1.640819e-01
5.848560e+02 1.690008e-01
5.943160e+02 1.740681e-01
6.039290e+02 1.792866e-01
6.136970e+02 1.846614e-01
6.236230e+02 1.901981e-01
6.337090e+02 1.959009e-01
6.439590e+02 2.017734e-01
6.543750e+02 2.079275e-01
6.649590e+02 2.148658e-01
6.757140e+02 2.220343e-01
6.866430e+02 2.294426e-01
6.977490e+02 2.370996e-01
7.090340e+02 2.450104e-01
7.205020e+02 2.531843e-01
7.321560e+02 2.616328e-01
7.439980e+02 2.703634e-01
7.560320e+02 2.793847e-01
7.682600e+02 2.887572e-01
7.806860e+02 2.993991e-01
7.933130e+02 3.104357e-01
8.061440e+02 3.218765e-01
8.191830e+02 3.337392e-01
8.324320e+02 3.460390e-01
8.458960e+02 3.587928e-01
8.595780e+02 3.720175e-01
8.734810e+02 3.857306e-01
8.876090e+02 3.999473e-01
9.019650e+02 4.146860e-01
9.165540e+02 4.299711e-01
9.313780e+02 4.458183e-01
9.464430e+02 4.622500e-01
9.617500e+02 4.792859e-01
9.773060e+02 4.969514e-01
9.931130e+02 5.152672e-01
1.009180e+03 5.342601e-01
1.025500e+03 5.539502e-01
1.042090e+03 5.743688e-01
1.058940e+03 5.955345e-01
1.076070e+03 6.174861e-01
1.093470e+03 6.402413e-01
1.111160e+03 6.638415e-01
1.129130e+03 6.890566e-01
1.147390e+03 7.155700e-01
1.165950e+03 7.431068e-01
1.184810e+03 7.717027e-01
1.203970e+03 8.013967e-01
1.223450e+03 8.322398e-01
1.243230e+03 8.642588e-01
1.263340e+03 8.975161e-01
1.283780e+03 9.320588e-01
1.304540e+03 9.679212e-01
1.325640e+03 1.005167e+00
1.347080e+03 1.043847e+00
1.368870e+03 1.084016e+00
1.391010e+03 1.125728e+00
1.413510e+03 1.169049e+00
1.436370e+03 1.214033e+00
1.459600e+03 1.260747e+00
1.483210e+03 1.309264e+00
1.507200e+03 1.359645e+00
1.531580e+03 1.411968e+00
1.556350e+03 1.466298e+00
1.581520e+03 1.522719e+00
1.607100e+03 1.581314e+00
1.633100e+03 1.642169e+00
1.659510e+03 1.705360e+00
1.686350e+03 1.770982e+00
1.713630e+03 1.839135e+00
1.741340e+03 1.909896e+00
1.769510e+03 1.983399e+00
1.798130e+03 2.059718e+00
1.827210e+03 2.138972e+00
1.856770e+03 2.221289e+00
1.886800e+03 2.306765e+00
1.917310e+03 2.395519e+00
1.948330e+03 2.487710e+00
1.979840e+03 2.583437e+00
2.011860e+03 2.682846e+00
2.044400e+03 2.786083e+00
2.077470e+03 2.893303e+00
2.079900e+03 2.901271e+00
2.080100e+03 8.834392e-01
2.111070e+03 9.262005e-01
2.124000e+03 9.444682e-01
2.141000e+03 9.688611e-01
2.155400e+03 9.898554e-01
2.155600e+03 7.259289e-01
2.175630e+03 7.386821e-01
2.210820e+03 7.613431e-01
2.246580e+03 7.846970e-01
2.282910e+03 8.094572e-01
2.319840e+03 8.433565e-01
2.357360e+03 8.786734e-01
2.372400e+03 8.930798e-01
2.372600e+03 7.941722e-01
2.395490e+03 8.111035e-01
2.434230e+03 8.402145e-01
2.473600e+03 8.703751e-01
2.513610e+03 9.016169e-01
2.554270e+03 9.339788e-01
2.595580e+03 9.674971e-01
2.637560e+03 1.002226e+00
2.680220e+03 1.038200e+00
2.723570e+03 1.075458e+00
2.767630e+03 1.114068e+00
2.812390e+03 1.154052e+00
2.857880e+03 1.203160e+00
2.904100e+03 1.254856e+00
2.951070e+03 1.308764e+00
2.998800e+03 1.365002e+00
3.047310e+03 1.423650e+00
3.096590e+03 1.484812e+00
3.146680e+03 1.548607e+00
3.197570e+03 1.615140e+00
3.249290e+03 1.684540e+00
3.301850e+03 1.756918e+00
3.355250e+03 1.832084e+00
3.409520e+03 1.909063e+00
3.464670e+03 1.989278e+00
3.520710e+03 2.072867e+00
3.577650e+03 2.159961e+00
3.635520e+03 2.250717e+00
3.694320e+03 2.345284e+00
3.754070e+03 2.443826e+00
3.814790e+03 2.546516e+00
3.876490e+03 2.657268e+00
3.939190e+03 2.772851e+00
4.002900e+03 2.893460e+00
4.067650e+03 3.019324e+00
4.133440e+03 3.150652e+00
4.200290e+03 3.283568e+00
4.268230e+03 3.417170e+00
4.337260e+03 3.556196e+00
4.407420e+03 3.700892e+00
4.478700e+03 3.851461e+00
4.551140e+03 4.008170e+00
4.624750e+03 4.171245e+00
4.699550e+03 4.340958e+00
4.775570e+03 4.517584e+00
4.852810e+03 4.701383e+00
4.931300e+03 4.893947e+00
5.011060e+03 5.107549e+00
5.092110e+03 5.330459e+00
5.174470e+03 5.563099e+00
5.258160e+03 5.805885e+00
5.343210e+03 6.059280e+00
5.429630e+03 6.323734e+00
5.517450e+03 6.599728e+00
5.606690e+03 6.887766e+00
5.697370e+03 7.188365e+00
5.789520e+03 7.502074e+00
5.883160e+03 7.829504e+00
5.978320e+03 8.171223e+00
6.075010e+03 8.527843e+00
6.173270e+03 8.900020e+00
6.273120e+03 9.288446e+00
6.374580e+03 9.693816e+00
6.477690e+03 1.011689e+01
6.582460e+03 1.055847e+01
6.688920e+03 1.101925e+01
6.797110e+03 1.150020e+01
6.907050e+03 1.200209e+01
7.018770e+03 1.252590e+01
7.132290e+03 1.307258e+01
7.247650e+03 1.364315e+01
7.364870e+03 1.423858e+01
7.483990e+03 1.486000e+01
7.605040e+03 1.550851e+01
7.728050e+03 1.618537e+01
7.853040e+03 1.689180e+01
7.980060e+03 1.762902e+01
8.109130e+03 1.839842e+01
8.240290e+03 1.927414e+01
8.373570e+03 2.019591e+01
8.509000e+03 2.116167e+01
8.646630e+03 2.217371e+01
8.786480e+03 2.323405e+01
8.928600e+03 2.434513e+01
9.073010e+03 2.550930e+01
9.219760e+03 2.672917e+01
9.368880e+03 2.800741e+01
9.520410e+03 2.934690e+01
9.674400e+03 3.075031e+01
9.830880e+03 3.222080e+01
9.989880e+03 3.360497e+01
1.015150e+04 3.513069e+01
1.031570e+04 3.672603e+01
1.048250e+04 3.839356e+01
1.065200e+04 4.013737e+01
1.082430e+04 4.196096e+01
1.099940e+04 4.386752e+01
1.117730e+04 4.586117e+01
1.135810e+04 4.794589e+01
1.154180e+04 5.012496e+01
1.172850e+04 5.240407e+01
1.191820e+04 5.478692e+01
1.211100e+04 5.727847e+01
1.230680e+04 5.988301e+01
1.250590e+04 6.260697e+01
1.270820e+04 6.545495e+01
1.291370e+04 6.843241e+01
1.312260e+04 7.154599e+01
1.333480e+04 7.480108e+01
1.355050e+04 7.820493e+01
1.376970e+04 8.176403e+01
1.399240e+04 8.548520e+01
1.421870e+04 8.937588e+01
1.444870e+04 9.344428e+01
1.468240e+04 9.769802e+01
1.491980e+04 1.021451e+02
1.516120e+04 1.067963e+02
1.540640e+04 1.116586e+02
1.565560e+04 1.167434e+02
1.590880e+04 1.220596e+02
1.616610e+04 1.276186e+02
1.642760e+04 1.334314e+02
1.669330e+04 1.395097e+02
1.696330e+04 1.458654e+02
1.703650e+04 1.476203e+02
1.703670e+04 2.148841e+01
1.723760e+04 2.212949e+01
1.751640e+04 2.303793e+01
1.779980e+04 2.398832e+01
1.808770e+04 2.498234e+01
1.838020e+04 2.602209e+01
1.867750e+04 2.710990e+01
1.897960e+04 2.824788e+01
1.928660e+04 2.943846e+01
1.959850e+04 3.068391e+01
1.991550e+04 3.198699e+01
2.023760e+04 3.335024e+01
2.056490e+04 3.477672e+01
2.089760e+04 3.626939e+01
2.123560e+04 3.783122e+01
2.157900e+04 3.946536e+01
2.192810e+04 4.117559e+01
2.228270e+04 4.296510e+01
2.264310e+04 4.483797e+01
2.300940e+04 4.679828e+01
2.338150e+04 4.884947e+01
2.375970e+04 5.099679e+01
2.414400e+04 5.324396e+01
2.453450e+04 5.559627e+01
2.493130e+04 5.805851e+01
2.533460e+04 6.063618e+01
2.574430e+04 6.333429e+01
2.616070e+04 6.615873e+01
2.658390e+04 6.911619e+01
2.701380e+04 7.221172e+01
2.745080e+04 7.545346e+01
2.789480e+04 7.884736e+01
2.834590e+04 8.240058e+01
2.880440e+04 8.612174e+01
2.927030e+04 9.001791e+01
2.974370e+04 9.409791e+01
3.000000e+04 9.635797e+01
