# material=Yb density=6.57
# Photon Energy [eV]  Attenuation Length [um]
1.000000e+01 2.879774e-01
1.016170e+01 2.909021e-01
1.032610e+01 2.938598e-01
1.049310e+01 2.968455e-01
1.066280e+01 2.998613e-01
1.083530e+01 3.029104e-01
1.101060e+01 3.059892e-01
1.118860e+01 3.090969e-01
1.136960e+01 3.109365e-01
1.155350e+01 3.093136e-01
1.174040e+01 3.076997e-01
1.193030e+01 3.060937e-01
1.212320e+01 3.044949e-01
1.231930e+01 3.012847e-01
1.251860e+01 2.965438e-01
1.272100e+01 2.918737e-01
1.292680e+01 2.872797e-01
1.313590e+01 2.827583e-01
1.334830e+01 2.783064e-01
1.356420e+01 2.739256e-01
1.378360e+01 2.696137e-01
1.400660e+01 2.653705e-01
1.423310e+01 2.617019e-01
1.446330e+01 2.583275e-01
1.469730e+01 2.549981e-01
1.493500e+01 2.517107e-01
1.517650e+01 2.484642e-01
1.542200e+01 2.452610e-01
1.567140e+01 2.421343e-01
1.592490e+01 2.394243e-01
1.618250e+01 2.367454e-01
1.644420e+01 2.340949e-01
1.671020e+01 2.314754e-01
1.698050e+01 2.288846e-01
1.725510e+01 2.263228e-01
1.753420e+01 2.236785e-01
1.781780e+01 2.210080e-01
1.810600e+01 2.183697e-01
1.839890e+01 2.157635e-01
1.869640e+01 2.131865e-01
1.899880e+01 2.106413e-01
1.930610e+01 2.082641e-01
1.961840e+01 2.073934e-01
1.993570e+01 2.065259e-01
2.025820e+01 2.056625e-01
2.058580e+01 2.048017e-01
2.091880e+01 2.039454e-01
2.125710e+01 2.030919e-01
2.160090e+01 2.012224e-01
2.195030e+01 1.988062e-01
2.230530e+01 1.964185e-01
2.266610e+01 1.940390e-01
2.303270e+01 1.912405e-01
2.340530e+01 1.884831e-01
2.378380e+01 1.857643e-01
2.416850e+01 1.761545e-01
2.455940e+01 1.630599e-01
2.495660e+01 1.488478e-01
2.536030e+01 1.329155e-01
2.577050e+01 1.186885e-01
2.618730e+01 8.748471e-02
2.661090e+01 7.361777e-02
2.704130e+01 5.093607e-02
2.747860e+01 3.522773e-02
2.792310e+01 2.646339e-02
2.837470e+01 2.162228e-02
2.883370e+01 1.841941e-02
2.930000e+01 1.677836e-02
2.977390e+01 1.623813e-02
3.025550e+01 1.572053e-02
3.074490e+01 1.522651e-02
3.124210e+01 1.489386e-02
3.174750e+01 1.457635e-02
3.226090e+01 1.441192e-02
3.278270e+01 1.431151e-02
3.331300e+01 1.443139e-02
3.385180e+01 1.469735e-02
3.439930e+01 1.502847e-02
3.495570e+01 1.551907e-02
3.552110e+01 1.590297e-02
3.609560e+01 1.628564e-02
3.667940e+01 1.670838e-02
3.727270e+01 1.716516e-02
3.787550e+01 1.764373e-02
3.848820e+01 1.835483e-02
3.911070e+01 1.909456e-02
3.974320e+01 1.986417e-02
4.038610e+01 2.050430e-02
4.103930e+01 2.109171e-02
4.170310e+01 2.169599e-02
4.237760e+01 2.237252e-02
4.306300e+01 2.316282e-02
4.375950e+01 2.394888e-02
4.446730e+01 2.463829e-02
4.518650e+01 2.534779e-02
4.591740e+01 2.607752e-02
4.666000e+01 2.669327e-02
4.741470e+01 2.726382e-02
4.818160e+01 2.784678e-02
4.896090e+01 2.844215e-02
4.975280e+01 2.904641e-02
5.055760e+01 2.956701e-02
5.137530e+01 3.009696e-02
5.220620e+01 3.063648e-02
5.305060e+01 3.118551e-02
5.390870e+01 3.177979e-02
5.478060e+01 3.241039e-02
5.566670e+01 3.305369e-02
5.656700e+01 3.370947e-02
5.748200e+01 3.426224e-02
5.841170e+01 3.471193e-02
5.935640e+01 3.516781e-02
6.031650e+01 3.562974e-02
6.129210e+01 3.623716e-02
6.228340e+01 3.687758e-02
6.329080e+01 3.752944e-02
6.431450e+01 3.816539e-02
6.535470e+01 3.876723e-02
6.641180e+01 3.937823e-02
6.748590e+01 4.001018e-02
6.857750e+01 4.067893e-02
6.968670e+01 4.135884e-02
7.081380e+01 4.204731e-02
7.195910e+01 4.199980e-02
7.312300e+01 4.195225e-02
7.430570e+01 4.190519e-02
7.550760e+01 4.240610e-02
7.672890e+01 4.330806e-02
7.796990e+01 4.422948e-02
7.923100e+01 4.517002e-02
8.051250e+01 4.613087e-02
8.181470e+01 4.711204e-02
8.313800e+01 4.794109e-02
8.448270e+01 4.874839e-02
8.584910e+01 4.956928e-02
8.723770e+01 5.040407e-02
8.864870e+01 5.062210e-02
9.008250e+01 5.081681e-02
9.153950e+01 5.101206e-02
9.302010e+01 5.120797e-02
9.452460e+01 5.140458e-02
9.605350e+01 5.160250e-02
9.760710e+01 5.180088e-02
9.918580e+01 5.199982e-02
1.007900e+02 5.219942e-02
1.024200e+02 5.240016e-02
1.040770e+02 5.260166e-02
1.057600e+02 5.280373e-02
1.074710e+02 5.300682e-02
1.092090e+02 5.321034e-02
1.109750e+02 5.341464e-02
1.127700e+02 5.362010e-02
1.145940e+02 5.382617e-02
1.164480e+02 5.403322e-02
1.183310e+02 5.423588e-02
1.202450e+02 5.443902e-02
1.221900e+02 5.464291e-02
1.241660e+02 5.484745e-02
1.261750e+02 5.505299e-02
1.282150e+02 5.525894e-02
1.302890e+02 5.546609e-02
1.323970e+02 5.567430e-02
1.345380e+02 5.588266e-02
1.367140e+02 5.609189e-02
1.389250e+02 5.630186e-02
1.411720e+02 5.651249e-02
1.434560e+02 5.672442e-02
1.457760e+02 5.693712e-02
1.481340e+02 5.715019e-02
1.505300e+02 5.736420e-02
1.529640e+02 5.757904e-02
1.554390e+02 5.779500e-02
1.579530e+02 5.801122e-02
1.605070e+02 5.822828e-02
1.631030e+02 5.844645e-02
1.657420e+02 5.866562e-02
1.684220e+02 5.902209e-02
1.711460e+02 5.943592e-02
1.739150e+02 5.985291e-02
1.767270e+02 6.027218e-02
1.795860e+02 6.069492e-02
1.824910e+02 6.112061e-02
1.854420e+02 6.154907e-02
1.884420e+02 6.198077e-02
1.914890e+02 6.241488e-02
1.945870e+02 6.285284e-02
1.977340e+02 6.329348e-02
2.009320e+02 6.373725e-02
2.041820e+02 6.418396e-02
2.074850e+02 6.463436e-02
2.108400e+02 6.508700e-02
2.142510e+02 6.554355e-02
2.177160e+02 6.600319e-02
2.212370e+02 6.646571e-02
2.248160e+02 6.693213e-02
2.284520e+02 6.769296e-02
2.321470e+02 6.869352e-02
2.359020e+02 6.970875e-02
2.397170e+02 7.073889e-02
2.435950e+02 7.178443e-02
2.475350e+02 7.284535e-02
2.515380e+02 7.392153e-02
2.556070e+02 7.501448e-02
2.597410e+02 7.612277e-02
2.639420e+02 7.724798e-02
2.682110e+02 7.838962e-02
2.725490e+02 7.949156e-02
2.769570e+02 8.058980e-02
2.814370e+02 8.170349e-02
2.859890e+02 8.283210e-02
2.906150e+02 8.397687e-02
2.953150e+02 8.513689e-02
3.000920e+02 8.631329e-02
3.049450e+02 8.750565e-02
3.098780e+02 8.871499e-02
3.148900e+02 8.994088e-02
3.199830e+02 9.118336e-02
3.251580e+02 9.244340e-02
3.304180e+02 9.372086e-02
3.357620e+02 9.501576e-02
3.411920e+02 9.632808e-02
3.467110e+02 9.765938e-02
3.523190e+02 9.900864e-02
3.580170e+02 1.003764e-01
3.638080e+02 1.021075e-01
3.696920e+02 1.038936e-01
3.756720e+02 1.057104e-01
3.817480e+02 1.075594e-01
3.879220e+02 1.094403e-01
3.941970e+02 1.113547e-01
4.005730e+02 1.133025e-01
4.070520e+02 1.152841e-01
4.136350e+02 1.173004e-01
4.203260e+02 1.193519e-01
4.271240e+02 1.214393e-01
4.340320e+02 1.235633e-01
4.410520e+02 1.257242e-01
4.481860e+02 1.279233e-01
4.554350e+02 1.302102e-01
4.628020e+02 1.328456e-01
4.702870e+02 1.355343e-01
4.778940e+02 1.382774e-01
4.856230e+02 1.410759e-01
4.934780e+02 1.439317e-01
5.014590e+02 1.468445e-01
5.095700e+02 1.498162e-01
5.178120e+02 1.528490e-01
5.261870e+02 1.559419e-01
5.346980e+02 1.590985e-01
5.433460e+02 1.623183e-01
5.521340e+02 1.656037e-01
5.610650e+02 1.689552e-01
5.701390e+02 1.723744e-01
5.793610e+02 1.765054e-01
5.887320e+02 1.809901e-01
5.982540e+02 1.855984e-01
6.079300e+02 1.903256e-01
6.177630e+02 1.951711e-01
6.277550e+02 2.001545e-01
6.379080e+02 2.054482e-01
6.482260e+02 2.111574e-01
6.587110e+02 2.172113e-01
6.693650e+02 2.234427e-01
6.801910e+02 2.294588e-01
6.911930e+02 2.353265e-01
7.023720e+02 2.412838e-01
7.137330e+02 2.477965e-01
7.252770e+02 2.547736e-01
7.370080e+02 2.619464e-01
7.489280e+02 2.693244e-01
7.610420e+02 2.769217e-01
7.733510e+02 2.848048e-01
7.858590e+02 2.931543e-01
7.985700e+02 3.019542e-01
8.114860e+02 3.110281e-01
8.246110e+02 3.203748e-01
8.379490e+02 3.300082e-01
8.515020e+02 3.400119e-01
8.652740e+02 3.504092e-01
8.792690e+02 3.612090e-01
8.934910e+02 3.723524e-01
9.079430e+02 3.838444e-01
9.226280e+02 3.956921e-01
9.375510e+02 4.081641e-01
9.527150e+02 4.211012e-01
9.681240e+02 4.345092e-01
9.837830e+02 4.483629e-01
9.996950e+02 4.627174e-01
1.015860e+03 4.775989e-01
1.032290e+03 4.935234e-01
1.048990e+03 5.101069e-01
1.065960e+03 5.273817e-01
1.083200e+03 5.452509e-01
1.100720e+03 5.637406e-01
1.118520e+03 5.828730e-01
1.136610e+03 6.026665e-01
1.155000e+03 6.231444e-01
1.173680e+03 6.443251e-01
1.192660e+03 6.662689e-01
1.211950e+03 6.889624e-01
1.231550e+03 7.124378e-01
1.251470e+03 7.367218e-01
1.271720e+03 7.618196e-01
1.292290e+03 7.877433e-01
1.313190e+03 8.145728e-01
1.334430e+03 8.423243e-01
1.356010e+03 8.710228e-01
1.377940e+03 9.007458e-01
1.400230e+03 9.315091e-01
1.422880e+03 9.633501e-01
1.445890e+03 9.962874e-01
1.469280e+03 1.030549e+00
1.493040e+03 1.066288e+00
1.517190e+03 1.103272e+00
1.527700e+03 1.119575e+00
1.527900e+03 3.419373e-01
1.541730e+03 3.507093e-01
1.566670e+03 3.668887e-01
1.592010e+03 3.040342e-01
1.617760e+03 2.656222e-01
1.643920e+03 2.759068e-01
1.670510e+03 2.865937e-01
1.697530e+03 2.976977e-01
1.724990e+03 3.092371e-01
1.752890e+03 3.212180e-01
1.781240e+03 3.336628e-01
1.810050e+03 3.465934e-01
1.839320e+03 3.600204e-01
1.869070e+03 3.739681e-01
1.899300e+03 3.884571e-01
1.930020e+03 4.035099e-01
1.949700e+03 4.133251e-01
1.949900e+03 3.528685e-01
1.961240e+03 3.581139e-01
1.992960e+03 3.730354e-01
2.025200e+03 3.884790e-01
2.057950e+03 4.046490e-01
2.091240e+03 4.214843e-01
2.125060e+03 4.390151e-01
2.159430e+03 4.572631e-01
2.172900e+03 4.645364e-01
2.173100e+03 4.349855e-01
2.194360e+03 4.455954e-01
2.229850e+03 4.636462e-01
2.265920e+03 4.824125e-01
2.302570e+03 5.019274e-01
2.339810e+03 5.222052e-01
2.377660e+03 5.353217e-01
2.398000e+03 5.424163e-01
2.398200e+03 5.316237e-01
2.416110e+03 5.410669e-01
2.455190e+03 5.620061e-01
2.494900e+03 5.837867e-01
2.535260e+03 6.064531e-01
2.576260e+03 6.300534e-01
2.617930e+03 6.546063e-01
2.660270e+03 6.801683e-01
2.703300e+03 7.067574e-01
2.747030e+03 7.344594e-01
2.791460e+03 7.632667e-01
2.836610e+03 7.932651e-01
2.882490e+03 8.244740e-01
2.929110e+03 8.569709e-01
2.976480e+03 8.907792e-01
3.024630e+03 9.259947e-01
3.073550e+03 9.626168e-01
3.123260e+03 1.000755e+00
3.173780e+03 1.040421e+00
3.225110e+03 1.081724e+00
3.277270e+03 1.124787e+00
3.330280e+03 1.169564e+00
3.384150e+03 1.216195e+00
3.438880e+03 1.264693e+00
3.494500e+03 1.315186e+00
3.551020e+03 1.367819e+00
3.608460e+03 1.422618e+00
3.666820e+03 1.479597e+00
3.726130e+03 1.539061e+00
3.786400e+03 1.600900e+00
3.847640e+03 1.665230e+00
3.909870e+03 1.732290e+00
3.973110e+03 1.802126e+00
4.037380e+03 1.874878e+00
4.102680e+03 1.950602e+00
4.169030e+03 2.029492e+00
4.236460e+03 2.111671e+00
4.304980e+03 2.197253e+00
4.374620e+03 2.286401e+00
4.445370e+03 2.379247e+00
4.517270e+03 2.475932e+00
4.590330e+03 2.576720e+00
4.664580e+03 2.681628e+00
4.740030e+03 2.790963e+00
4.816690e+03 2.904856e+00
4.894600e+03 3.023539e+00
4.973770e+03 3.147178e+00
5.054210e+03 3.275951e+00
5.135960e+03 3.410159e+00
5.219030e+03 3.549967e+00
5.303440e+03 3.695668e+00
5.389220e+03 3.847530e+00
5.476390e+03 4.005757e+00
5.564970e+03 4.170628e+00
5.654980e+03 4.342490e+00
5.746440e+03 4.521598e+00
5.839390e+03 4.708311e+00
5.933830e+03 4.902878e+00
6.029810e+03 5.105813e+00
6.127330e+03 5.317315e+00
6.226440e+03 5.537703e+00
6.327150e+03 5.767532e+00
6.429480e+03 6.007224e+00
6.533480e+03 6.257235e+00
6.639150e+03 6.517902e+00
6.746540e+03 6.789714e+00
6.855650e+03 7.073051e+00
6.966540e+03 7.368831e+00
7.079220e+03 7.677461e+00
7.193720e+03 7.999175e+00
7.310070e+03 8.335188e+00
7.428310e+03 8.685582e+00
7.548450e+03 9.051111e+00
7.670540e+03 9.433012e+00
7.794610e+03 9.831219e+00
7.920680e+03 1.024681e+01
8.048790e+03 1.068123e+01
8.178980e+03 1.113485e+01
8.311260e+03 1.160810e+01
8.445690e+03 1.210284e+01
8.582290e+03 1.261912e+01
8.721110e+03 1.315883e+01
8.862160e+03 1.372224e+01
8.943500e+03 1.405377e+01
8.943700e+03 5.131665e+00
9.005500e+03 5.233621e+00
9.151160e+03 5.479087e+00
9.299170e+03 5.735993e+00
9.449580e+03 6.005100e+00
9.602420e+03 6.286968e+00
9.757730e+03 6.581706e+00
9.915550e+03 6.890509e+00
9.978100e+03 7.015426e+00
9.978300e+03 5.015360e+00
1.007590e+04 5.155836e+00
1.023890e+04 5.395983e+00
1.040450e+04 5.647355e+00
1.048630e+04 5.774226e+00
1.048650e+04 5.035334e+00
1.057280e+04 5.139505e+00
1.074380e+04 5.349685e+00
1.091760e+04 5.569278e+00
1.109420e+04 5.798592e+00
1.127360e+04 6.038131e+00
1.145590e+04 6.288271e+00
1.164120e+04 6.549610e+00
1.182950e+04 6.822613e+00
1.202080e+04 7.107686e+00
1.221530e+04 7.405566e+00
1.241280e+04 7.716647e+00
1.261360e+04 8.041665e+00
1.281760e+04 8.381137e+00
1.302500e+04 8.735830e+00
1.323560e+04 9.106247e+00
1.344970e+04 9.493273e+00
1.366720e+04 9.897550e+00
1.388830e+04 1.031994e+01
1.411290e+04 1.076117e+01
1.434120e+04 1.122217e+01
1.457310e+04 1.170373e+01
1.480890e+04 1.220694e+01
1.504840e+04 1.273261e+01
1.529180e+04 1.328181e+01
1.553910e+04 1.385559e+01
1.579040e+04 1.445509e+01
1.604580e+04 1.508146e+01
1.630540e+04 1.573599e+01
1.656910e+04 1.641980e+01
1.683710e+04 1.713429e+01
1.710940e+04 1.788080e+01
1.738610e+04 1.866082e+01
1.766740e+04 1.947601e+01
1.795310e+04 2.032764e+01
1.824350e+04 2.121761e+01
1.853860e+04 2.214755e+01
1.883840e+04 2.311919e+01
1.914310e+04 2.413458e+01
1.945270e+04 2.519559e+01
1.976740e+04 2.630447e+01
2.008710e+04 2.746308e+01
2.041200e+04 2.867387e+01
2.074210e+04 2.993908e+01
2.107760e+04 3.126135e+01
2.141850e+04 3.264305e+01
2.176500e+04 3.408724e+01
2.211700e+04 3.559621e+01
2.247470e+04 3.717320e+01
2.283820e+04 3.882136e+01
2.320760e+04 4.054379e+01
2.358300e+04 4.234394e+01
2.396440e+04 4.422513e+01
2.435200e+04 4.619138e+01
2.474590e+04 4.824628e+01
2.514620e+04 5.039400e+01
2.555290e+04 5.263862e+01
2.596620e+04 5.498463e+01
2.638610e+04 5.743652e+01
2.681290e+04 5.999923e+01
2.724660e+04 6.267793e+01
2.768730e+04 6.547760e+01
2.813510e+04 6.840397e+01
2.859020e+04 7.146276e+01
2.905260e+04 7.465974e+01
2.952250e+04 7.800184e+01
3.000000e+04 8.149509e+01
